,Date,Adj Close,daily_return
0,2018-01-02,82.77696990966797,
1,2018-01-03,82.94822692871094,0.0020688969314757166
2,2018-01-04,81.82563018798828,-0.013533703881186798
3,2018-01-05,82.68184661865234,0.010463914896799098
4,2018-01-08,82.95772552490234,0.003336632133077666
5,2018-01-09,82.1871337890625,-0.009288968941277509
6,2018-01-10,81.50216674804688,-0.008334236874273149
7,2018-01-11,82.053955078125,0.006770228965616409
8,2018-01-12,82.348876953125,0.0035942432600499785
9,2018-01-16,82.04444122314453,-0.0036969020251941265
10,2018-01-17,82.615234375,0.006957121571503189
11,2018-01-18,82.99579620361328,0.00460643647012926
12,2018-01-19,84.29916381835938,0.01570401965358026
13,2018-01-22,83.205078125,-0.012978606712123697
14,2018-01-23,83.33827209472656,0.001600791354662956
15,2018-01-24,83.90909576416016,0.006849478097947115
16,2018-01-25,85.07923889160156,0.01394536690909276
17,2018-01-26,84.80335235595703,-0.0032427010306949056
18,2018-01-29,83.4619369506836,-0.01581795256917351
19,2018-01-30,83.72929382324219,0.0032033389390013767
20,2018-01-31,83.47148895263672,-0.003079028364310732
21,2018-02-01,82.91769409179688,-0.006634539143707818
22,2018-02-02,81.92467498779297,-0.011975961402213464
23,2018-02-05,79.61396789550781,-0.028205264074950054
24,2018-02-06,80.00546264648438,0.004917412877730065
25,2018-02-07,80.062744140625,0.0007159697881347071
26,2018-02-08,77.70429992675781,-0.029457449144195347
27,2018-02-09,78.44908142089844,0.009584816990084732
28,2018-02-12,78.86919403076172,0.005355226629222942
29,2018-02-13,85.66761016845703,0.08619862572760284
30,2018-02-14,86.565185546875,0.010477418205701916
31,2018-02-15,87.05211639404297,0.0056250193896285605
32,2018-02-16,87.68231201171875,0.007239291171545981
33,2018-02-20,86.94708251953125,-0.00838515175203447
34,2018-02-21,86.08773803710938,-0.009883534415646822
35,2018-02-22,86.51742553710938,0.004991274132615464
36,2018-02-23,86.88025665283203,0.004193734539257976
37,2018-02-26,86.67974090576172,-0.00230795528000749
38,2018-02-27,85.45753479003906,-0.014100251142322162
39,2018-02-28,85.38116455078125,-0.0008936630274375412
40,2018-03-01,84.98013305664062,-0.004696955074934728
41,2018-03-02,85.62940979003906,0.007640335570734846
42,2018-03-05,86.31690979003906,0.008028783588322375
43,2018-03-06,86.6701889038086,0.004092814659709898
44,2018-03-07,86.06864929199219,-0.006940559602149121
45,2018-03-08,85.88722229003906,-0.0021079336488437628
46,2018-03-09,86.76567840576172,0.01022801870057144
47,2018-03-12,86.67974090576172,-0.0009904549999379952
48,2018-03-13,86.4123764038086,-0.003084509703874194
49,2018-03-14,86.00179290771484,-0.004751443174934478
50,2018-03-15,86.20233154296875,0.002331795983242957
51,2018-03-16,86.07819366455078,-0.0014400756475605458
52,2018-03-19,85.89675903320312,-0.002107788553913137
53,2018-03-20,85.72489929199219,-0.0020007709620860625
54,2018-03-21,85.54346466064453,-0.002116475293014508
55,2018-03-22,83.98711395263672,-0.018193683341935496
56,2018-03-23,82.85084533691406,-0.013529082763380051
57,2018-03-26,84.22582244873047,0.016595812706859503
58,2018-03-27,84.10169982910156,-0.001473688425001285
59,2018-03-28,84.36904907226562,0.00317888037587033
60,2018-03-29,85.77265167236328,0.016636463436910498
61,2018-04-02,83.95845031738281,-0.021151279803152234
62,2018-04-03,85.51483154296875,0.01853751730412423
63,2018-04-04,85.6580581665039,0.001674874649822522
64,2018-04-05,86.31690979003906,0.007691647903743881
65,2018-04-06,84.50272369384766,-0.021017736856014824
66,2018-04-09,85.83948516845703,0.015819152521668434
67,2018-04-10,88.53211212158203,0.031368162889616746
68,2018-04-11,88.0833511352539,-0.005068906361477499
69,2018-04-12,88.51301574707031,0.0048779321662801856
70,2018-04-13,88.56074523925781,0.0005392369900025784
71,2018-04-16,90.05030059814453,0.01681958925325766
72,2018-04-17,91.78807830810548,0.01929785573638343
73,2018-04-18,91.29158020019531,-0.005409178589005581
74,2018-04-19,90.51815795898438,-0.008471999712513223
75,2018-04-20,90.17443084716795,-0.003797327735857947
76,2018-04-23,90.08848571777344,-0.0009530986620828186
77,2018-04-24,88.97134399414062,-0.012400493966926662
78,2018-04-25,88.94269561767578,-0.0003219955457425261
79,2018-04-26,89.06684112548828,0.001395792054090128
80,2018-04-27,89.23868560791016,0.0019293878647808071
81,2018-04-30,89.27688598632812,0.00042806971166986507
82,2018-05-01,89.31504821777344,0.0004274592580564285
83,2018-05-02,88.37934112548828,-0.010476477491269565
84,2018-05-03,87.00439453125,-0.015557330216866117
85,2018-05-04,88.09290313720703,0.012510961220080219
86,2018-05-07,88.6084976196289,0.005852849254142756
87,2018-05-08,87.91864013671875,-0.007785455136272823
88,2018-05-09,89.06839752197266,0.013077515569689835
89,2018-05-10,89.86365509033203,0.008928616551826751
90,2018-05-11,90.34273529052734,0.005331189786502044
91,2018-05-14,89.46125030517578,-0.009757120841170641
92,2018-05-15,88.244384765625,-0.013602152165320014
93,2018-05-16,89.62410736083984,0.01563524522131754
94,2018-05-17,89.38459014892578,-0.002672464127868257
95,2018-05-18,89.64327239990234,0.002894036327129479
96,2018-05-21,90.07443237304688,0.0048097304081125
97,2018-05-22,90.02652740478516,-0.0005318375814272747
98,2018-05-23,90.15109252929688,0.0013836491099077364
99,2018-05-24,90.09361267089844,-0.0006375946955913259
100,2018-05-25,90.14151000976562,0.0005316396739705187
101,2018-05-29,89.40374755859375,-0.008184491818385875
102,2018-05-30,90.02652740478516,0.006965925514288429
103,2018-05-31,88.45519256591797,-0.01745413140064833
104,2018-06-01,88.88634490966797,0.00487424571970374
105,2018-06-04,89.93070983886719,0.011749441719766551
106,2018-06-05,89.98821258544922,0.0006394116835624075
107,2018-06-06,89.97863006591797,-0.00010648638589361159
108,2018-06-07,89.336669921875,-0.0071345845516059825
109,2018-06-08,89.7391128540039,0.004504789942146203
110,2018-06-11,89.89240264892578,0.001708171498990163
111,2018-06-12,90.2085952758789,0.003517456621868309
112,2018-06-13,90.37146759033205,0.0018055077119318863
113,2018-06-14,90.88887786865234,0.005725372090511938
114,2018-06-15,90.94634246826172,0.0006322511726069013
115,2018-06-18,90.86968994140624,-0.0008428324303666468
116,2018-06-19,90.30440521240234,-0.006220828192199157
117,2018-06-20,90.67807006835938,0.004137836410949669
118,2018-06-21,89.20254516601562,-0.016272125126079562
119,2018-06-22,88.7522201538086,-0.005048342638306225
120,2018-06-25,88.3210678100586,-0.004857933052297869
121,2018-06-26,88.8288803100586,0.005749619117967342
122,2018-06-27,88.244384765625,-0.006580017021416973
123,2018-06-28,88.8288803100586,0.006623600424956244
124,2018-06-29,89.47080993652344,0.007226586941366131
125,2018-07-02,89.67202758789062,0.002248975408962295
126,2018-07-03,90.05529022216797,0.004274048937966679
127,2018-07-05,90.58226013183594,0.005851626354963946
128,2018-07-06,90.14151000976562,-0.004865744367924085
129,2018-07-09,91.11881256103516,0.010841870201238724
130,2018-07-10,92.08653259277344,0.010620419697524808
131,2018-07-11,91.67453002929688,-0.004474080540077696
132,2018-07-12,91.73201751708984,0.0006270824379965845
133,2018-07-13,90.8984375,-0.009087121810381515
134,2018-07-16,89.38459014892578,-0.01665427253437901
135,2018-07-17,90.67807006835938,0.014470949827912083
136,2018-07-18,90.6589126586914,-0.00021126838775376022
137,2018-07-19,92.29733276367188,0.018072355568047982
138,2018-07-20,91.77033996582031,-0.0057097294371543095
139,2018-07-23,91.15711975097656,-0.006682117719866154
140,2018-07-24,90.78347778320312,-0.004098878604262168
141,2018-07-25,90.76431274414062,-0.0002111071257731023
142,2018-07-26,92.04820251464844,0.014145314735396264
143,2018-07-27,98.59227752685548,0.07109400111496611
144,2018-07-30,98.20903778076172,-0.0038871172845091895
145,2018-07-31,98.46857452392578,0.002642697138968364
146,2018-08-01,98.46857452392578,0.0
147,2018-08-02,98.997314453125,0.005369631192038371
148,2018-08-03,100.0739974975586,0.010875881334573068
149,2018-08-06,100.1797332763672,0.001056575948324534
150,2018-08-07,99.5452651977539,-0.006333297742598054
151,2018-08-08,98.97808837890624,-0.005697677511039112
152,2018-08-09,99.88174438476562,0.009129859150239783
153,2018-08-10,98.4205093383789,-0.014629650847483466
154,2018-08-13,97.4784164428711,-0.00957211969172822
155,2018-08-14,98.0359878540039,0.0057199473635232145
156,2018-08-15,97.42072296142578,-0.00627590853161375
157,2018-08-16,97.73796844482422,0.0032564476402423548
158,2018-08-17,98.78581237792969,0.010720950617026714
159,2018-08-20,98.88195037841795,0.0009731964355415013
160,2018-08-21,99.29532623291016,0.004180498593628235
161,2018-08-22,99.18956756591795,-0.001065092094507336
162,2018-08-23,98.93002319335938,-0.00261664990510313
163,2018-08-24,99.78560638427734,0.008648367434886062
164,2018-08-27,100.4969711303711,0.007128931434802865
165,2018-08-28,99.8721160888672,-0.006217650487130522
166,2018-08-29,100.65079498291016,0.007796759741728998
167,2018-08-30,100.65079498291016,0.0
168,2018-08-31,100.66041564941406,9.55846052237419e-05
169,2018-09-04,102.2658233642578,0.015948749113406713
170,2018-09-05,103.9961929321289,0.01692031131170535
171,2018-09-06,104.7364273071289,0.007117898781959342
172,2018-09-07,103.7270278930664,-0.00963752001108975
173,2018-09-10,104.36149597167969,0.006116709323507941
174,2018-09-11,104.32302856445312,-0.00036859769849406643
175,2018-09-12,105.15940856933594,0.008017213614212482
176,2018-09-13,106.53410339355469,0.013072485314638893
177,2018-09-14,107.63964080810548,0.010377309981825844
178,2018-09-17,106.99554443359376,-0.005983821291822955
179,2018-09-18,107.2743148803711,0.0026054397709087684
180,2018-09-19,106.83210754394531,-0.004122210772624535
181,2018-09-20,106.21686553955078,-0.005758961594401257
182,2018-09-21,106.0534439086914,-0.0015385657449901169
183,2018-09-24,106.11111450195312,0.0005437880292824548
184,2018-09-25,104.55378723144531,-0.014676382185007997
185,2018-09-26,104.39996337890624,-0.001471241325754824
186,2018-09-27,104.1500244140625,-0.0023940522271700404
187,2018-09-28,103.5732192993164,-0.005538213917770429
188,2018-10-01,103.60205841064452,0.0002784417779346793
189,2018-10-02,103.96736145019531,0.0035260210574470374
190,2018-10-03,103.82317352294922,-0.0013868576179569825
191,2018-10-04,102.94835662841795,-0.008426027300522554
192,2018-10-05,103.0252685546875,0.0007470923168511057
193,2018-10-08,103.50592041015624,0.004665378331079939
194,2018-10-09,101.63133239746094,-0.01811092549360449
195,2018-10-10,98.4589614868164,-0.03121449690571787
196,2018-10-11,97.641845703125,-0.008299049384151935
197,2018-10-12,97.71874237060548,0.0007875380368604912
198,2018-10-15,98.19940948486328,0.004918883548816311
199,2018-10-16,101.5159912109375,0.033773947760708634
200,2018-10-17,100.95841217041016,-0.005492524220827133
201,2018-10-18,100.2374267578125,-0.00714140998355528
202,2018-10-19,100.28548431396484,0.00047943724920695985
203,2018-10-22,99.94903564453124,-0.003354908955520264
204,2018-10-23,99.67023468017578,-0.0027894312592170456
205,2018-10-24,96.20947265625,-0.034722121755113355
206,2018-10-25,97.37266540527344,0.012090210214325214
207,2018-10-26,96.4786376953125,-0.009181505982607252
208,2018-10-29,96.286376953125,-0.0019927804411447037
209,2018-10-30,97.78150939941406,0.015527974918164489
210,2018-10-31,98.35062408447266,0.005820268970628151
211,2018-11-01,99.52742004394531,0.011965312578615883
212,2018-11-02,100.12547302246094,0.006008926768638734
213,2018-11-05,98.27344512939452,-0.018497070097745816
214,2018-11-06,100.41485595703124,0.02179033028522781
215,2018-11-07,101.3891143798828,0.0097023335199371
216,2018-11-08,101.40839385986328,0.00019015335224503715
217,2018-11-09,100.59815216064452,-0.007989887901571957
218,2018-11-12,98.16735076904295,-0.02416347954105391
219,2018-11-13,98.75575256347656,0.005993864455178466
220,2018-11-14,98.46636199951172,-0.0029303666515916316
221,2018-11-15,101.08042907714844,0.02654781820465435
222,2018-11-16,102.51768493652344,0.0142189331060123
223,2018-11-19,101.45663452148438,-0.010349925631817025
224,2018-11-20,100.61742401123048,-0.008271617861286162
225,2018-11-21,99.83609771728516,-0.007765318001563215
226,2018-11-23,100.22193145751952,0.003864671687458854
227,2018-11-26,100.01937103271484,-0.002021118749747197
228,2018-11-27,98.67858123779295,-0.013405301203937126
229,2018-11-28,100.34733581542969,0.016911011049250968
230,2018-11-29,100.1737060546875,-0.0017302876985348936
231,2018-11-30,100.36663055419922,0.001925899590920599
232,2018-12-03,100.76210021972656,0.0039402504930539095
233,2018-12-04,99.2959213256836,-0.014550896526032586
234,2018-12-06,98.03230285644531,-0.01272578422525239
235,2018-12-07,96.23812866210938,-0.018301867262704774
236,2018-12-10,95.6015167236328,-0.0066149658906160536
237,2018-12-11,95.17708587646484,-0.004439582777697071
238,2018-12-12,96.3924789428711,0.012769807514213749
239,2018-12-13,96.76866912841795,0.0039026923020604176
240,2018-12-14,96.78794860839844,0.00019923266646260096
241,2018-12-17,95.14813232421876,-0.016942360156989467
242,2018-12-18,94.4729232788086,-0.007096398309841545
243,2018-12-19,92.20610809326172,-0.02399433728600786
244,2018-12-20,91.64665222167969,-0.0060674491435661615
245,2018-12-21,90.23833465576172,-0.01536681953762431
246,2018-12-24,86.52462005615234,-0.04115451170255224
247,2018-12-26,88.52133178710938,0.023076804378467264
248,2018-12-27,89.10010528564453,0.006538237584665874
249,2018-12-28,89.41841125488281,0.0035724533457937024
250,2018-12-31,90.73992156982422,0.014778950960943726
251,2019-01-02,86.98762512207031,-0.0413522117149564
252,2019-01-03,85.93621063232422,-0.012086943266592654
253,2019-01-04,87.84612274169922,0.02222476526858408
254,2019-01-07,88.6949691772461,0.00966287878228611
255,2019-01-08,90.20938873291016,0.01707446960872927
256,2019-01-09,90.17081451416016,-0.00042760758377613506
257,2019-01-10,91.23186492919922,0.011767115787475024
258,2019-01-11,91.37655639648438,0.0015859751129436717
259,2019-01-14,90.6338119506836,-0.008128391735162332
260,2019-01-15,91.45372772216795,0.009046466807889564
261,2019-01-16,91.3572769165039,-0.0010546405058201591
262,2019-01-17,92.53407287597656,0.012881250396158173
263,2019-01-18,94.23178100585938,0.018346843245063305
264,2019-01-22,93.02603149414062,-0.01279557171527701
265,2019-01-23,93.93273162841795,0.009746735614906132
266,2019-01-24,93.69158935546876,-0.0025671804574267654
267,2019-01-25,93.94239044189452,0.002676879409892363
268,2019-01-28,94.4150619506836,0.005031503952216632
269,2019-01-29,94.80223846435548,0.004100791819361627
270,2019-01-30,94.82158660888672,0.000204089532532592
271,2019-01-31,95.94442749023438,0.011841616677213729
272,2019-02-01,96.36065673828124,0.004338232651283747
273,2019-02-04,96.65104675292969,0.003013574465740243
274,2019-02-05,97.83195495605469,0.01221826604882792
275,2019-02-06,98.33529663085938,0.005144961838192685
276,2019-02-07,98.68376159667969,0.0035436407654152458
277,2019-02-08,98.14170837402344,-0.005492830977315455
278,2019-02-11,98.44176483154295,0.0030573796043571466
279,2019-02-12,99.04190826416016,0.0060964310589533
280,2019-02-13,99.5065460205078,0.00469132475828693
281,2019-02-14,98.50952911376952,-0.01001961123776518
282,2019-02-15,98.67408752441406,0.0016704821566499994
283,2019-02-19,98.29657745361328,-0.003825827836587581
284,2019-02-20,98.98383331298828,0.006991656039085692
285,2019-02-21,99.8162841796875,0.00840996795978799
286,2019-02-22,98.78057861328124,-0.01037611823479434
287,2019-02-25,98.3062515258789,-0.004801825359408762
288,2019-02-26,98.06426239013672,-0.002461584405733186
289,2019-02-27,98.16105651855469,0.0009870479424287648
290,2019-02-28,98.47081756591795,0.0031556409267530228
291,2019-03-01,97.58028411865234,-0.009043628044110408
292,2019-03-04,98.35464477539062,0.007935626174204513
293,2019-03-05,98.2191390991211,-0.0013777252368607495
294,2019-03-06,97.2705307006836,-0.009658080972183902
295,2019-03-07,96.68006896972656,-0.006070304404670823
296,2019-03-08,97.2511749267578,0.00590717366172
297,2019-03-11,98.7515106201172,0.015427429997522779
298,2019-03-12,98.98383331298828,0.002352598875826839
299,2019-03-13,99.00318908691406,0.00019554480037742294
300,2019-03-14,99.59363555908205,0.005963913663928899
301,2019-03-15,99.7485122680664,0.0015550864080313698
302,2019-03-18,100.38737487792969,0.006404733216936576
303,2019-03-19,100.2809066772461,-0.001060573611104565
304,2019-03-20,100.6196746826172,0.0033781904910517024
305,2019-03-21,102.1587371826172,0.01529584054862676
306,2019-03-22,100.5035400390625,-0.01620220833971253
307,2019-03-25,101.16175079345705,0.006549130051923813
308,2019-03-26,102.06195831298828,0.00889869454087644
309,2019-03-27,102.13938903808594,0.0007586639172667553
310,2019-03-28,102.78793334960938,0.006349600459051086
311,2019-03-29,102.98151397705078,0.0018833010951100349
312,2019-04-01,104.25921630859376,0.0124071037820217
313,2019-04-02,103.78491973876952,-0.004549205208107421
314,2019-04-03,104.02692413330078,0.002331787654125561
315,2019-04-04,104.63672637939452,0.005861965555304938
316,2019-04-05,105.25623321533205,0.005920548715288687
317,2019-04-08,105.49820709228516,0.00229890306313818
318,2019-04-09,104.69480895996094,-0.007615277590655611
319,2019-04-10,105.54661560058594,0.008136092410758966
320,2019-04-11,106.14675903320312,0.005686050937798726
321,2019-04-12,106.77593231201172,0.005927390384211195
322,2019-04-15,106.369384765625,-0.0038074829934403587
323,2019-04-16,106.1080322265625,-0.00245702783407431
324,2019-04-17,104.2495346069336,-0.017515145466656334
325,2019-04-18,104.74321746826172,0.004735588155760473
326,2019-04-22,105.4401397705078,0.006653627023222253
327,2019-04-23,106.53394317626952,0.010373690779833966
328,2019-04-24,106.41777801513672,-0.0010904051579184726
329,2019-04-25,105.94346618652344,-0.004457073220846763
330,2019-04-26,107.85037231445312,0.017999280149777253
331,2019-04-29,107.75357055664062,-0.000897556083814588
332,2019-04-30,108.02547454833984,0.002523387302105995
333,2019-05-01,109.55010223388672,0.014113593964029558
334,2019-05-02,109.734619140625,0.0016843152400198846
335,2019-05-03,110.56005859375,0.007522142598109349
336,2019-05-06,111.69623565673828,0.010276559884642822
337,2019-05-07,110.67658233642578,-0.009128806484097418
338,2019-05-08,110.69600677490234,0.0001755063091621878
339,2019-05-09,109.734619140625,-0.008684935096460178
340,2019-05-10,110.31726837158205,0.005309620933849235
341,2019-05-13,109.54039764404295,-0.007042149783135998
342,2019-05-14,109.71520233154295,0.0015958011040642095
343,2019-05-15,109.96768951416016,0.0023012962401893766
344,2019-05-16,110.81255340576172,0.007682837525587738
345,2019-05-17,110.49207305908205,-0.0028920942332785193
346,2019-05-20,109.77345275878906,-0.0065038176983857054
347,2019-05-21,110.20075988769531,0.0038926272078294577
348,2019-05-22,109.88029479980469,-0.002908011598261262
349,2019-05-23,109.6957778930664,-0.0016792538377737865
350,2019-05-24,109.6666488647461,-0.00026554375090637183
351,2019-05-28,109.63750457763672,-0.0002657534210361856
352,2019-05-29,109.44329833984376,-0.001771348577670584
353,2019-05-30,110.2298812866211,0.007187127569335816
354,2019-05-31,109.99681091308594,-0.002114402835372009
355,2019-06-03,110.73484802246094,0.006709622790411318
356,2019-06-04,112.3760223388672,0.014820757383198657
357,2019-06-05,113.74527740478516,0.012184583841106322
358,2019-06-06,116.75569152832031,0.026466277916946
359,2019-06-07,118.3968505859375,0.014056351653050747
360,2019-06-10,119.6592788696289,0.010662684669767275
361,2019-06-11,119.03778839111328,-0.005193834397019481
362,2019-06-12,118.10552215576172,-0.00783168309787885
363,2019-06-13,117.2315444946289,-0.007399972881709793
364,2019-06-14,116.6197280883789,-0.005218871839379635
365,2019-06-17,116.69741821289062,0.0006661833789634031
366,2019-06-18,116.0370635986328,-0.005658690863692861
367,2019-06-19,115.95938873291016,-0.0006693970298259355
368,2019-06-20,116.34782409667969,0.0033497534612243474
369,2019-06-21,115.93024444580078,-0.003589062830534062
370,2019-06-24,115.34759521484376,-0.005025860453778397
371,2019-06-25,117.56170654296876,0.019195123435395756
372,2019-06-26,115.79429626464844,-0.015033894371670575
373,2019-06-27,118.03754425048828,0.019372698467918337
374,2019-06-28,120.74691772460938,0.022953489004917893
375,2019-07-01,120.67894744873048,-0.0005629152044602792
376,2019-07-02,119.97003936767578,-0.005874330991790244
377,2019-07-03,122.28126525878906,0.01926502569554045
378,2019-07-05,121.00914001464844,-0.010403271845841444
379,2019-07-08,120.4070281982422,-0.004975754858958181
380,2019-07-09,120.4847183227539,0.0006452291504428498
381,2019-07-10,120.00888061523438,-0.003949361496989656
382,2019-07-11,120.43617248535156,0.0035605020889006855
383,2019-07-12,119.84380340576172,-0.004918531263204073
384,2019-07-15,119.36795806884766,-0.003970546022333488
385,2019-07-16,119.6010284423828,0.001952537157423162
386,2019-07-17,119.96033477783205,0.003004207740758158
387,2019-07-18,120.76634979248048,0.006719012714837769
388,2019-07-19,119.83409118652344,-0.007719522926369793
389,2019-07-22,119.6010284423828,-0.0019448784718354428
390,2019-07-23,120.91201782226562,0.010961355407695272
391,2019-07-24,119.72725677490234,-0.00979853838106326
392,2019-07-25,119.36795806884766,-0.0030009766842833407
393,2019-07-26,120.89258575439452,0.012772503695401172
394,2019-07-29,121.32960510253906,0.003614939207540857
395,2019-07-30,120.57966613769531,-0.006181005569168008
396,2019-07-31,117.86246490478516,-0.02253448960297555
397,2019-08-01,114.49274444580078,-0.02859027648629775
398,2019-08-02,114.94075012207031,0.003912961283599969
399,2019-08-05,114.02527618408205,-0.007964746506491482
400,2019-08-06,116.59638214111328,0.022548561538938472
401,2019-08-07,118.48577880859376,0.016204590852517242
402,2019-08-08,119.66419982910156,0.009945674766686174
403,2019-08-09,117.9208984375,-0.014568278516809974
404,2019-08-12,116.88856506347656,-0.008754456484832418
405,2019-08-13,118.0572509765625,0.00999829121395468
406,2019-08-14,115.98282623291016,-0.017571345482745304
407,2019-08-15,115.24266052246094,-0.006381683689642648
408,2019-08-16,117.11256408691406,0.016225793087176088
409,2019-08-19,117.08334350585938,-0.00024950850732807783
410,2019-08-20,115.77831268310548,-0.011146169759736813
411,2019-08-21,116.216552734375,0.003785165296621873
412,2019-08-22,117.3949966430664,0.010140069387403639
413,2019-08-23,117.12229919433594,-0.0023229052048920895
414,2019-08-26,117.833251953125,0.006070174199785949
415,2019-08-27,118.3299560546875,0.004215313532720755
416,2019-08-28,118.6805419921875,0.0029627826223308507
417,2019-08-29,118.5149917602539,-0.001394923120122682
418,2019-08-30,119.03116607666016,0.004355350396939128
419,2019-09-03,116.52821350097656,-0.0210277077691704
420,2019-09-04,118.75847625732422,0.01913925125376581
421,2019-09-05,118.03777313232422,-0.006068645773446901
422,2019-09-06,117.72611236572266,-0.0026403477321804703
423,2019-09-09,115.99256896972656,-0.014725224176355578
424,2019-09-10,116.00230407714844,8.392871636808685e-05
425,2019-09-11,115.53482055664062,-0.0040299503033741635
426,2019-09-12,114.96996307373048,-0.00488906703787384
427,2019-09-13,115.3108367919922,0.0029648936917821
428,2019-09-16,113.44093322753906,-0.01621619976469546
429,2019-09-17,113.95709991455078,0.004550092037557407
430,2019-09-18,115.21343994140624,0.011024675319023514
431,2019-09-19,114.77517700195312,-0.003803922004897986
432,2019-09-20,114.96996307373048,0.0016971097485132258
433,2019-09-23,115.01866912841795,0.00042364156154617305
434,2019-09-24,115.41796875,0.003471607040907765
435,2019-09-25,116.01203918457031,0.005147122592818132
436,2019-09-26,115.81726837158205,-0.0016788844878279363
437,2019-09-27,115.57378387451172,-0.002102316006013405
438,2019-09-30,115.3595199584961,-0.0018539145196481144
439,2019-10-01,114.59986877441406,-0.006585075807833962
440,2019-10-02,112.34040069580078,-0.019716148916897658
441,2019-10-03,111.98979949951172,-0.003120882550868176
442,2019-10-04,114.26876831054688,0.020349789188122358
443,2019-10-07,113.51883697509766,-0.006562872310053591
444,2019-10-08,111.78528594970705,-0.015271042864638318
445,2019-10-09,113.44093322753906,0.014810958917946593
446,2019-10-10,113.27536010742188,-0.0014595535791748215
447,2019-10-11,113.29484558105469,0.00017201864213300944
448,2019-10-14,112.8273696899414,-0.004126188519131158
449,2019-10-15,112.17484283447266,-0.0057834092672899295
450,2019-10-16,112.457275390625,0.002517788739575977
451,2019-10-17,113.50910186767578,0.009353120759837186
452,2019-10-18,114.7070083618164,0.01055339593416127
453,2019-10-21,114.8238754272461,0.0010188310818903812
454,2019-10-22,113.61624145507812,-0.010517272367567276
455,2019-10-23,114.30770111083984,0.00608592263664276
456,2019-10-24,114.27849578857422,-0.00025549741602537424
457,2019-10-25,114.80440521240234,0.004601998129211582
458,2019-10-28,115.11602783203124,0.00271437859071999
459,2019-10-29,115.77056121826172,0.005685857986565734
460,2019-10-30,116.4934539794922,0.006244184649564
461,2019-10-31,115.41887664794922,-0.009224358063347982
462,2019-11-01,108.22901916503906,-0.06229360128708117
463,2019-11-04,106.15801239013672,-0.019135411102120914
464,2019-11-05,106.14824676513672,-9.19914077150974e-05
465,2019-11-06,106.95906066894531,0.007638504907222732
466,2019-11-07,106.87114715576172,-0.000821936099978493
467,2019-11-08,106.48040008544922,-0.00365624474623627
468,2019-11-11,106.0700912475586,-0.0038533743070213733
469,2019-11-12,105.71842193603516,-0.0033154427170489775
470,2019-11-13,107.0860595703125,0.012936606593549449
471,2019-11-14,107.91641235351562,0.007754069825101073
472,2019-11-15,107.4181900024414,-0.004616743090403386
473,2019-11-18,107.78942108154295,0.0034559424162063923
474,2019-11-19,107.94571685791016,0.0014500103516557061
475,2019-11-20,108.1410903930664,0.0018099239214226515
476,2019-11-21,108.72722625732422,0.005420103146059896
477,2019-11-22,107.57450103759766,-0.010601992338132638
478,2019-11-25,108.38530731201172,0.007537160447815383
479,2019-11-26,109.95809173583984,0.014511048248454061
480,2019-11-27,110.22186279296876,0.0023988326185451214
481,2019-11-29,109.5282745361328,-0.006292655914723055
482,2019-12-02,109.42080688476562,-0.0009811863815285538
483,2019-12-03,110.1046371459961,0.006249545042659399
484,2019-12-04,109.19612884521484,-0.008251317331681385
485,2019-12-05,109.36219024658205,0.001520762714973145
486,2019-12-06,109.48920440673828,0.0011614083429551947
487,2019-12-09,110.02647399902344,0.00490705540510894
488,2019-12-10,109.35243225097656,-0.006126177851094816
489,2019-12-11,109.96785736083984,0.005627905088117391
490,2019-12-12,111.54065704345705,0.014302358165044105
491,2019-12-13,111.33551025390624,-0.0018392108760026948
492,2019-12-16,111.67741394042969,0.0030709311498526848
493,2019-12-17,110.7298355102539,-0.00848496035806523
494,2019-12-18,110.46607971191406,-0.002381975888652188
495,2019-12-19,110.64192199707031,0.0015918215402848102
496,2019-12-20,112.30262756347656,0.01500973172221487
497,2019-12-23,112.7031478881836,0.003566437699604519
498,2019-12-24,112.07794189453124,-0.0055473693979927186
499,2019-12-26,112.16585540771484,0.0007843962130062998
500,2019-12-27,112.3612289428711,0.0017418271758913306
501,2019-12-30,113.08413696289062,0.0064337852729172695
502,2019-12-31,112.94735717773438,-0.001209539983500374
503,2020-01-02,111.05220794677734,-0.016779048915459116
504,2020-01-03,111.40387725830078,0.003166702562924062
505,2020-01-06,111.41365051269531,8.772813509771993e-05
506,2020-01-07,110.30001831054688,-0.009995473597928073
507,2020-01-08,110.60285186767578,0.0027455440331505265
508,2020-01-09,112.00955963134766,0.012718548752746806
509,2020-01-10,113.1134262084961,0.009855110410053713
510,2020-01-13,113.51395416259766,0.0035409408726005953
511,2020-01-14,113.44556427001952,-0.0006024800482253845
512,2020-01-15,114.0121612548828,0.004994439302313136
513,2020-01-16,115.48724365234376,0.012937939086719918
514,2020-01-17,114.60807037353516,-0.00761273064456558
515,2020-01-21,112.9571304321289,-0.014405093254126311
516,2020-01-22,112.99620056152344,0.00034588457802597894
517,2020-01-23,114.65691375732422,0.014697071118745964
518,2020-01-24,114.41270446777344,-0.002129913334905087
519,2020-01-27,113.79724884033205,-0.005379259500108646
520,2020-01-28,113.64046478271484,-0.0013777491039100864
521,2020-01-29,113.61106872558594,-0.00025867596709594487
522,2020-01-30,114.1990203857422,0.005175126567785293
523,2020-01-31,113.18970489501952,-0.00883821496290782
524,2020-02-03,114.88494110107422,0.014976946954910586
525,2020-02-04,114.60077667236328,-0.002473469768861425
526,2020-02-05,115.5022964477539,0.007866611392765899
527,2020-02-06,115.16913604736328,-0.0028844482805701066
528,2020-02-07,114.35579681396484,-0.007062128460041173
529,2020-02-10,113.47389221191406,-0.007711936138099507
530,2020-02-11,113.71886444091795,0.0021588422167313492
531,2020-02-12,112.40576934814452,-0.011546853718853778
532,2020-02-13,113.86583709716795,0.012989259870650471
533,2020-02-14,114.32640075683594,0.0040447922872157704
534,2020-02-18,112.9447250366211,-0.012085360083657015
535,2020-02-19,112.69974517822266,-0.0021690243463694525
536,2020-02-20,112.62135314941406,-0.0006955830173761557
537,2020-02-21,109.7306137084961,-0.025667774006256527
538,2020-02-24,107.01626586914062,-0.024736468225414754
539,2020-02-25,104.7918701171875,-0.02078558557325405
540,2020-02-26,102.5772476196289,-0.02113353349913505
541,2020-02-27,100.34304809570312,-0.021780653856209087
542,2020-02-28,99.03976440429688,-0.012988280863894364
543,2020-03-02,101.49935150146484,0.02483433913602129
544,2020-03-03,100.6958236694336,-0.007916580945048213
545,2020-03-04,105.28181457519531,0.04554301001416605
546,2020-03-05,101.89131927490234,-0.032203997565708575
547,2020-03-06,105.14463806152344,0.03192930280786377
548,2020-03-09,99.41212463378906,-0.0545202640231649
549,2020-03-10,101.90110778808594,0.025037018004249623
550,2020-03-11,97.0897445678711,-0.047216005052865384
551,2020-03-12,92.50375366210938,-0.04723455526815046
552,2020-03-13,94.45377349853516,0.021080440081909124
553,2020-03-16,86.11471557617188,-0.08828718656213996
554,2020-03-17,94.51258087158205,0.0975195149774597
555,2020-03-18,94.8065414428711,0.0031102798016748867
556,2020-03-19,96.8937530517578,0.022015480969152623
557,2020-03-20,90.6517105102539,-0.06442151681511987
558,2020-03-23,82.24406433105469,-0.0927466909545871
559,2020-03-24,86.29109954833984,0.04920762671692325
560,2020-03-25,88.36852264404297,0.02407459293689218
561,2020-03-26,94.2676010131836,0.06675542594394934
562,2020-03-27,92.11178588867188,-0.02286909925935443
563,2020-03-30,98.4616241455078,0.06893621913389514
564,2020-03-31,97.5405044555664,-0.009355113709887064
565,2020-04-01,94.27738189697266,-0.03345402586143309
566,2020-04-02,94.21859741210938,-0.0006235269126111387
567,2020-04-03,92.29796600341795,-0.020384843984575962
568,2020-04-06,98.73600006103516,0.06975271868264987
569,2020-04-07,99.0887680053711,0.0035728401405552557
570,2020-04-08,102.01870727539062,0.029568833370304137
571,2020-04-09,105.11522674560548,0.030352467237759306
572,2020-04-13,100.29405212402344,-0.04586561596113958
573,2020-04-14,101.93050384521484,0.0163165380851078
574,2020-04-15,98.902587890625,-0.029705690057098555
575,2020-04-16,99.80410766601562,0.009115229384974333
576,2020-04-17,100.87220764160156,0.010701964083083881
577,2020-04-20,104.7918701171875,0.038857704884505795
578,2020-04-21,103.9883270263672,-0.007667990750825471
579,2020-04-22,104.16471862792969,0.001696263480782445
580,2020-04-23,102.91040802001952,-0.01204160702810031
581,2020-04-24,102.02849578857422,-0.00856970882161634
582,2020-04-27,110.31856536865234,0.08125249241405075
583,2020-04-28,109.29618072509766,-0.009267566525527071
584,2020-04-29,108.21481323242188,-0.009893918392223089
585,2020-04-30,105.2656478881836,-0.02725288023095429
586,2020-05-01,104.34158325195312,-0.008778406391532823
587,2020-05-04,105.00022888183594,0.0063123982726271954
588,2020-05-05,103.77140808105469,-0.011703029734955406
589,2020-05-06,103.0832748413086,-0.006631241229844376
590,2020-05-07,103.68292236328124,0.005817117499378632
591,2020-05-08,105.7080307006836,0.019531744391876327
592,2020-05-11,104.50870513916016,-0.011345642838805459
593,2020-05-12,102.18868255615234,-0.022199323778038904
594,2020-05-13,100.6846160888672,-0.01471852292898157
595,2020-05-14,100.72393035888672,0.0003904694832903566
596,2020-05-15,99.78019714355469,-0.009369503473200869
597,2020-05-18,102.3852996826172,0.026108412426911976
598,2020-05-19,101.97241973876952,-0.004032609614149307
599,2020-05-20,102.64090728759766,0.0065555720903813786
600,2020-05-21,103.3093719482422,0.0065126534664343705
601,2020-05-22,103.31920623779295,9.519261771995247e-05
602,2020-05-26,107.6938018798828,0.04234058507981131
603,2020-05-27,110.64297485351562,0.027384797659220972
604,2020-05-28,109.70906829833984,-0.008440721667256512
605,2020-05-29,109.50263214111328,-0.0018816690400212943
606,2020-06-01,109.53211975097656,0.0002692867676941102
607,2020-06-02,110.17111206054688,0.005833834961133544
608,2020-06-03,111.360595703125,0.010796692711283695
609,2020-06-04,110.23992156982422,-0.010063471070937635
610,2020-06-05,111.47856903076172,0.011235924729436242
611,2020-06-08,111.655517578125,0.0015872875737619196
612,2020-06-09,110.56432342529295,-0.00977286368377217
613,2020-06-10,109.7483901977539,-0.00737971528483472
614,2020-06-11,102.48361206054688,-0.06619484918290597
615,2020-06-12,103.57479858398438,0.01064742451498324
616,2020-06-15,103.62395477294922,0.00047459603722987964
617,2020-06-16,105.5704116821289,0.018783850832990945
618,2020-06-17,105.09854125976562,-0.004469722290977529
619,2020-06-18,105.17717742919922,0.0007482137096388453
620,2020-06-19,105.77684783935548,0.005701525985140066
621,2020-06-22,105.7276840209961,-0.0004647880832491236
622,2020-06-23,105.61955261230469,-0.0010227350546138103
623,2020-06-24,104.14496612548828,-0.013961302148562726
624,2020-06-25,105.77684783935548,0.01566932876910143
625,2020-06-26,105.89480590820312,0.00111515961438724
626,2020-06-29,107.39888763427734,0.014203545803540774
627,2020-06-30,110.08262634277344,0.024988514942863915
628,2020-07-01,110.57416534423828,0.004465182361604425
629,2020-07-02,113.02196502685548,0.022137175306697898
630,2020-07-06,113.30705261230469,0.002522408678538479
631,2020-07-07,113.19892120361328,-0.0009543219614174259
632,2020-07-08,111.01653289794922,-0.019279232367758636
633,2020-07-09,111.83246612548828,0.007349655103074504
634,2020-07-10,113.00230407714844,0.01046062911952128
635,2020-07-13,111.50806427001952,-0.013223091505362383
636,2020-07-14,114.3392562866211,0.025390020310511074
637,2020-07-15,115.9023208618164,0.013670410548036749
638,2020-07-16,115.25350189208984,-0.005597980824733506
639,2020-07-17,117.3769073486328,0.018423782546157064
640,2020-07-20,117.2687759399414,-0.00092123238832853
641,2020-07-21,116.17757415771484,-0.009305134921723912
642,2020-07-22,116.49215698242188,0.0027077758077473923
643,2020-07-23,116.43317413330078,-0.000506324637202793
644,2020-07-24,116.83621978759766,0.003461604970379284
645,2020-07-27,117.8192901611328,0.008414089186746354
646,2020-07-28,116.39942169189452,-0.0120512393793617
647,2020-07-29,117.14878845214844,0.0064378907503293
648,2020-07-30,116.26138305664062,-0.007575028365489955
649,2020-07-31,113.58927917480469,-0.02298358931902722
650,2020-08-03,117.00089263916016,0.030034643138330708
651,2020-08-04,116.9614486694336,-0.0003371253743184033
652,2020-08-05,116.70509338378906,-0.0021917930100974203
653,2020-08-06,116.0148696899414,-0.005914255100913479
654,2020-08-07,117.5826416015625,0.013513542839905579
655,2020-08-10,115.36408996582031,-0.018868020019995102
656,2020-08-11,115.10773468017578,-0.0022221410988504386
657,2020-08-12,116.43885803222656,0.01156415210280426
658,2020-08-13,116.86284637451172,0.003641295950942869
659,2020-08-14,116.83325958251952,-0.00025317534965207944
660,2020-08-17,116.59661865234376,-0.0020254585981880346
661,2020-08-18,116.23179626464844,-0.0031289276817119127
662,2020-08-19,116.0444564819336,-0.001611777402874215
663,2020-08-20,115.90641784667969,-0.0011895323519861556
664,2020-08-21,116.15292358398438,0.002126765211834636
665,2020-08-24,117.44459533691406,0.011120441165613393
666,2020-08-25,116.4782943725586,-0.008227717602359075
667,2020-08-26,116.94172668457031,0.003978701049050626
668,2020-08-27,118.37146759033205,0.012226097102347344
669,2020-08-28,116.4782943725586,-0.015993492826543942
670,2020-08-31,116.7346649169922,0.002201015612519175
671,2020-09-01,117.82915496826172,0.009375878639372281
672,2020-09-02,120.55055236816406,0.023096129312268898
673,2020-09-03,117.50375366210938,-0.025274033558549736
674,2020-09-04,117.06005096435548,-0.003776072541731623
675,2020-09-08,114.43724060058594,-0.022405682742852928
676,2020-09-09,116.2416534423828,0.01576770666897409
677,2020-09-10,115.55145263671876,-0.005937637544067953
678,2020-09-11,116.70509338378906,0.009983784026473597
679,2020-09-14,117.4150161743164,0.006083048905095589
680,2020-09-15,116.67550659179688,-0.006298253891322103
681,2020-09-16,116.1233367919922,-0.004732525411151656
682,2020-09-17,114.33863830566406,-0.01536899072685971
683,2020-09-18,113.43150329589844,-0.007933757330051083
684,2020-09-21,111.86373138427734,-0.013821309478120769
685,2020-09-22,112.73143005371094,0.0077567470590880205
686,2020-09-23,110.5720443725586,-0.019155134287957676
687,2020-09-24,110.69037628173828,0.0010701792650318342
688,2020-09-25,110.5326156616211,-0.0014252424232044092
689,2020-09-28,110.78897094726562,0.002319272769490288
690,2020-09-29,111.04534149169922,0.002314043918285158
691,2020-09-30,111.6172332763672,0.005150074527986659
692,2020-10-01,112.11024475097656,0.004416983472333991
693,2020-10-02,111.2721176147461,-0.007475919244420037
694,2020-10-05,112.94835662841795,0.015064322038657041
695,2020-10-06,112.95821380615234,8.72715462945095e-05
696,2020-10-07,113.37234497070312,0.0036662332963361965
697,2020-10-08,114.89080047607422,0.013393526487993856
698,2020-10-09,115.1767578125,0.00248894894317786
699,2020-10-12,116.38955688476562,0.010529894184380328
700,2020-10-13,115.91627502441406,-0.004066360187453433
701,2020-10-14,114.81192779541016,-0.00952711108747506
702,2020-10-15,114.71331787109376,-0.0008588822277429964
703,2020-10-16,114.72318267822266,8.599530823416579e-05
704,2020-10-19,113.53997039794922,-0.010313628445892453
705,2020-10-20,115.32465362548828,0.015718545823852903
706,2020-10-21,116.09375762939452,0.006669033721131923
707,2020-10-22,116.65577697753906,0.004841081550126747
708,2020-10-23,116.69522857666016,0.00033818813044028673
709,2020-10-26,115.81766510009766,-0.007520131604918268
710,2020-10-27,114.383544921875,-0.012382568557077978
711,2020-10-28,111.10979461669922,-0.0286208152353713
712,2020-10-29,111.7032241821289,0.005340929370600156
713,2020-10-30,112.8406219482422,0.010182318142033298
714,2020-11-02,116.89573669433594,0.03593665717257166
715,2020-11-03,118.250732421875,0.011591489697200474
716,2020-11-04,117.74632263183594,-0.004265595482652151
717,2020-11-05,121.56404113769531,0.03242325042962446
718,2020-11-06,122.2464828491211,0.005613845221324798
719,2020-11-09,121.8211898803711,-0.003478979180733588
720,2020-11-10,126.21257781982422,0.03604781683519498
721,2020-11-11,123.898193359375,-0.01833719349075602
722,2020-11-12,122.90914916992188,-0.00798271679865692
723,2020-11-13,123.70038604736328,0.006437575093352299
724,2020-11-16,125.47078704833984,0.01431200869735938
725,2020-11-17,125.9653091430664,0.00394133253134088
726,2020-11-18,124.98616027832031,-0.007773162876407613
727,2020-11-19,125.83673858642578,0.006805379941358325
728,2020-11-20,126.41038513183594,0.004558657128706178
729,2020-11-23,125.47078704833984,-0.007432918446662162
730,2020-11-24,126.4796142578125,0.008040335389655207
731,2020-11-25,124.9070281982422,-0.012433514039383309
732,2020-11-27,125.84662628173828,0.007522379621463848
733,2020-11-30,124.93669128417969,-0.007230507677825848
734,2020-12-01,126.42028045654295,0.011874727568931043
735,2020-12-02,124.87736511230469,-0.012204650540770245
736,2020-12-03,124.49163055419922,-0.003088906926876356
737,2020-12-04,126.28180694580078,0.01437989352081126
738,2020-12-07,127.2214126586914,0.00744054694508689
739,2020-12-08,127.77525329589844,0.004353360221623026
740,2020-12-09,128.11155700683594,0.0026319940854173662
741,2020-12-10,129.041259765625,0.007256978062794461
742,2020-12-11,129.02146911621094,-0.00015336683360045456
743,2020-12-14,127.00382232666016,-0.015638070186082542
744,2020-12-15,128.83354187011722,0.014406806897125701
745,2020-12-16,129.66435241699222,0.006448713082130242
746,2020-12-17,131.68202209472656,0.015560712255328735
747,2020-12-18,132.63151550292972,0.007210501426839544
748,2020-12-21,133.41287231445312,0.0058911851271590265
749,2020-12-22,133.02711486816406,-0.0028914559712036603
750,2020-12-23,133.05679321289062,0.0002230999654166954
751,2020-12-24,134.21397399902344,0.00869689369622284
752,2020-12-28,134.19419860839844,-0.00014734226277468565
753,2020-12-29,133.8282470703125,-0.002727029498151734
754,2020-12-30,134.89642333984378,0.00798169514220759
755,2020-12-31,135.39094543457028,0.0036659392627531595
756,2021-01-04,132.5325927734375,-0.021111845049594735
757,2021-01-05,132.23587036132812,-0.002238863708164396
758,2021-01-06,136.21185302734378,0.03006735354901413
759,2021-01-07,138.170166015625,0.014376964594176034
760,2021-01-08,137.54708862304688,-0.004509492971931928
761,2021-01-11,137.2701416015625,-0.002013470617639568
762,2021-01-12,136.63714599609378,-0.004611313123767613
763,2021-01-13,137.06243896484378,0.0031125721021878494
764,2021-01-14,137.92291259765622,0.006277968196911621
765,2021-01-15,137.3096923828125,-0.004446108360781076
766,2021-01-19,135.75688171386722,-0.0113088205355244
767,2021-01-20,139.08009338378906,0.024479139679461248
768,2021-01-21,136.59759521484378,-0.01784941402142204
769,2021-01-22,136.67672729492188,0.0005793080028504427
770,2021-01-25,138.0416259765625,0.009986328387095789
771,2021-01-26,137.68463134765622,-0.002586137524683285
772,2021-01-27,132.13163757324222,-0.04033125353252098
773,2021-01-28,134.11483764648438,0.015009274914517423
774,2021-01-29,131.85398864746094,-0.01685756057046317
775,2021-02-01,132.96456909179688,0.008422805071944373
776,2021-02-02,135.7906494140625,0.021254386349453203
777,2021-02-03,135.41384887695312,-0.0027748636502975543
778,2021-02-04,136.84176635742188,0.010544840814370904
779,2021-02-05,139.47943115234378,0.019275290469669137
780,2021-02-08,140.78834533691406,0.009384281063927302
781,2021-02-09,140.9767608642578,0.001338289237598822
782,2021-02-10,142.0476837158203,0.007596449549537088
783,2021-02-11,141.77005004882812,-0.0019545103427918153
784,2021-02-12,143.41612243652344,0.011610861300594744
785,2021-02-16,142.394775390625,-0.00712156366067207
786,2021-02-17,142.00804138183594,-0.002715928359928621
787,2021-02-18,139.80665588378906,-0.015501836914486478
788,2021-02-19,131.13011169433594,-0.06206102373741984
789,2021-02-22,128.01646423339844,-0.023744717522969916
790,2021-02-23,127.20333862304688,-0.0063517268284263295
791,2021-02-24,127.67930603027344,0.0037417839215450055
792,2021-02-25,129.20639038085938,0.011960312113725502
793,2021-02-26,128.97833251953122,-0.0017650664232311541
794,2021-03-01,129.50387573242188,0.004074662795094497
795,2021-03-02,129.2559814453125,-0.0019141843107581824
796,2021-03-03,129.95008850097656,0.005370018840928692
797,2021-03-04,129.30552673339844,-0.004960071786124898
798,2021-03-05,132.96456909179688,0.028297648606641745
799,2021-03-08,136.55419921875,0.026996892115484394
800,2021-03-09,136.53436279296878,-0.00014526412146020906
801,2021-03-10,138.21017456054688,0.012273919424366397
802,2021-03-11,138.21017456054688,0.0
803,2021-03-12,139.58851623535156,0.009972794544159003
804,2021-03-15,140.9370880126953,0.009661051021346179
805,2021-03-16,139.32077026367188,-0.011468363450774843
806,2021-03-17,140.09422302246094,0.00555159691785545
807,2021-03-18,140.32229614257812,0.0016279980372968517
808,2021-03-19,138.1407470703125,-0.015546703070259071
809,2021-03-22,140.401611328125,0.016366382155597714
810,2021-03-23,139.58851623535156,-0.005791209125607488
811,2021-03-24,140.64952087402344,0.007600945029625272
812,2021-03-25,141.27426147460938,0.004441825302380575
813,2021-03-26,143.60452270507812,0.016494591485707755
814,2021-03-29,143.55494689941406,-0.0003452245425854539
815,2021-03-30,141.87911987304688,-0.011673767171126448
816,2021-03-31,140.48095703125,-0.00985460611151201
817,2021-04-01,142.6624755859375,0.015528927199735865
818,2021-04-05,143.47560119628906,0.005699646014215798
819,2021-04-06,144.744873046875,0.00884660416128491
820,2021-04-07,142.38482666015625,-0.01630487033523087
821,2021-04-08,142.4740753173828,0.0006268129780400145
822,2021-04-09,143.98130798339844,0.010578995951775916
823,2021-04-12,144.9828643798828,0.006956155701821176
824,2021-04-13,145.10183715820312,0.0008205988951119902
825,2021-04-14,144.58619689941406,-0.003553643902019399
826,2021-04-15,145.96453857421875,0.009533010096140604
827,2021-04-16,146.837158203125,0.0059782988212753185
828,2021-04-19,148.45347595214844,0.011007552644048957
829,2021-04-20,149.15753173828125,0.0047426022302081705
830,2021-04-21,150.6647491455078,0.010104869594323995
831,2021-04-22,148.81045532226562,-0.012307416524162229
832,2021-04-23,150.17886352539062,0.009195645562414034
833,2021-04-26,149.6533203125,-0.00349944859452056
834,2021-04-27,150.74684143066406,0.0073070287774479326
835,2021-04-28,150.22988891601562,-0.003429275928718001
836,2021-04-29,150.0310821533203,-0.0013233502609221182
837,2021-04-30,149.92172241210938,-0.0007289138999823086
838,2021-05-03,151.56202697753906,0.010941073375082766
839,2021-05-04,154.10693359375,0.01679118884170161
840,2021-05-05,153.27186584472656,-0.005418755208151826
841,2021-05-06,155.5980987548828,0.015177168342902947
842,2021-05-07,156.63197326660156,0.006644518924022513
843,2021-05-10,154.56422424316406,-0.01320132141806074
844,2021-05-11,153.08299255371094,-0.009583276445154665
845,2021-05-12,150.71701049804688,-0.015455551372461795
846,2021-05-13,153.7092742919922,0.019853524058480954
847,2021-05-14,152.63565063476562,-0.0069847682397293775
848,2021-05-17,152.2081756591797,-0.002800623404874303
849,2021-05-18,150.0310821533203,-0.014303393995958924
850,2021-05-19,148.65919494628906,-0.009144019941343173
851,2021-05-20,148.8580322265625,0.00133753771736278
852,2021-05-21,148.74868774414062,-0.0007345554740065818
853,2021-05-24,148.38084411621094,-0.002472920154848124
854,2021-05-25,146.85986328125,-0.010250520166671384
855,2021-05-26,146.9890899658203,0.0008799319411243456
856,2021-05-27,145.905517578125,-0.007371787851379152
857,2021-05-28,146.4423370361328,0.0036792265770235755
858,2021-06-01,146.01487731933594,-0.0029189626814778435
859,2021-06-02,144.80206298828125,-0.008306101085865714
860,2021-06-03,144.5435791015625,-0.0017850842825331004
861,2021-06-04,144.70263671875,0.0011004128870764074
862,2021-06-07,141.68055725097656,-0.020884757432908962
863,2021-06-08,141.93902587890625,0.0018243055571260935
864,2021-06-09,141.33261108398438,-0.004272361256299151
865,2021-06-10,144.13601684570312,0.01983551948992779
866,2021-06-11,144.9710693359375,0.00579350330686812
867,2021-06-14,142.6448516845703,-0.016046081897738596
868,2021-06-15,143.47988891601562,0.005853959828089783
869,2021-06-16,141.77996826171875,-0.01184779739613473
870,2021-06-17,140.67649841308594,-0.007782974295747258
871,2021-06-18,139.27481079101562,-0.00996390753169274
872,2021-06-21,140.74609375,0.010563884098123477
873,2021-06-22,140.79580688476562,0.0003532114706781275
874,2021-06-23,139.34440612792972,-0.010308551006947275
875,2021-06-24,139.35433959960938,7.128719376470194e-05
876,2021-06-25,140.08998107910156,0.005278927671759748
877,2021-06-28,139.8812255859375,-0.0014901529114076384
878,2021-06-29,139.4537353515625,-0.0030560944300017656
879,2021-06-30,140.01045227050778,0.0039921262599513785
880,2021-07-01,140.28878784179688,0.001987962804029353
881,2021-07-02,139.58299255371094,-0.005031017082290701
882,2021-07-06,139.22511291503906,-0.0025639200888615266
883,2021-07-07,140.18940734863278,0.0069261530007318495
884,2021-07-08,138.44970703125,-0.012409641714629549
885,2021-07-09,140.34843444824222,0.013714203212894072
886,2021-07-12,139.59292602539062,-0.005383091203131407
887,2021-07-13,137.68423461914062,-0.013673267411149714
888,2021-07-14,137.62458801269528,-0.0004332130444006932
889,2021-07-15,137.74388122558594,0.0008668015985606736
890,2021-07-16,138.22103881835938,0.00346409284047966
891,2021-07-19,136.32229614257812,-0.013737001921078407
892,2021-07-20,136.21295166015622,-0.0008021027045168605
893,2021-07-21,135.25859069824222,-0.0070063892624181445
894,2021-07-22,133.87678527832028,-0.010216027039677611
895,2021-07-23,135.43754577636722,0.011658186255385727
896,2021-07-26,135.91471862792972,0.0035231947598224345
897,2021-07-27,135.9544677734375,0.00029245651912512827
898,2021-07-28,136.8392333984375,0.006507808382394842
899,2021-07-29,138.23098754882812,0.010170724548991261
900,2021-07-30,128.16065979003906,-0.07285144913857944
901,2021-08-02,129.14482116699222,0.007679122271728955
902,2021-08-03,128.24751281738278,-0.006948078455652151
903,2021-08-04,126.39302825927734,-0.014460199011782193
904,2021-08-05,127.12086486816406,0.005758518637544396
905,2021-08-06,128.048095703125,0.007294088471806459
906,2021-08-09,129.69319152832028,0.012847483722127295
907,2021-08-10,128.81581115722656,-0.006765045726414565
908,2021-08-11,131.23858642578122,0.01880805816296527
909,2021-08-12,132.28544616699222,0.007976767882996283
910,2021-08-13,132.65435791015622,0.0027887553306378265
911,2021-08-16,132.48486328125,-0.0012777162512898066
912,2021-08-17,132.61447143554688,0.0009782865082612613
913,2021-08-18,131.65733337402344,-0.007217448074576249
914,2021-08-19,132.01626586914062,0.002726262836400428
915,2021-08-20,133.12297058105472,0.008383093587960522
916,2021-08-23,132.56463623046878,-0.004194124786645936
917,2021-08-24,132.56463623046878,0.0
918,2021-08-25,133.73115539550778,0.00879962558801095
919,2021-08-26,132.26551818847656,-0.01095957933434899
920,2021-08-27,134.12995910644528,0.014096197886677597
921,2021-08-30,134.827880859375,0.005203324876702942
922,2021-08-31,134.39915466308594,-0.00317980371386406
923,2021-09-01,134.6085205078125,0.0015577913808417776
924,2021-09-02,134.73814392089844,0.0009629658850489609
925,2021-09-03,134.74810791015622,7.395076826677283e-05
926,2021-09-07,130.69021606445312,-0.03011464805434383
927,2021-09-08,130.49081420898438,-0.0015257596281760266
928,2021-09-09,128.24751281738278,-0.017191259056816732
929,2021-09-10,125.4657974243164,-0.021690209283258266
930,2021-09-13,124.3890151977539,-0.008582276992357474
931,2021-09-14,124.20954895019531,-0.0014427821240748928
932,2021-09-15,124.25939178466795,0.0004012802147170813
933,2021-09-16,121.93633270263672,-0.01869523943958229
934,2021-09-17,120.86951446533205,-0.008748977549671744
935,2021-09-20,121.49763488769531,0.0051966819354059
936,2021-09-21,119.70298767089844,-0.014771046518360031
937,2021-09-22,119.92233276367188,0.0018324111790466446
938,2021-09-23,120.65016174316406,0.006069169626031989
939,2021-09-24,120.0020980834961,-0.005371428022181601
940,2021-09-27,119.97218322753906,-0.00024928610778307547
941,2021-09-28,119.6730728149414,-0.00249316470327432
942,2021-09-29,120.02203369140624,0.0029159515023438054
943,2021-09-30,118.9950942993164,-0.008556257217989138
944,2021-10-01,121.21846771240234,0.018684580454159994
945,2021-10-04,121.92636108398438,0.005839814550878009
946,2021-10-05,121.29823303222656,-0.005151700142392968
947,2021-10-06,122.73394775390624,0.01183623772407505
948,2021-10-07,123.8905029296875,0.009423270390522154
949,2021-10-08,124.13975524902344,0.0020118759181839696
950,2021-10-11,124.19957733154295,0.00048189302773726794
951,2021-10-12,124.11981201171876,-0.0006422350344338357
952,2021-10-13,127.01119232177734,0.02329507484095772
953,2021-10-14,127.62934112548828,0.004866884503728519
954,2021-10-15,127.8387222290039,0.0016405405032198228
955,2021-10-18,127.43991088867188,-0.003119644293828494
956,2021-10-19,127.17071533203124,-0.002112333214637885
957,2021-10-20,127.7789077758789,0.004782488187313749
958,2021-10-21,128.68620300292972,0.0071005085490492
959,2021-10-22,127.39006042480469,-0.010072117662027202
960,2021-10-25,127.41000366210938,0.00015655253822921544
961,2021-10-26,126.88999938964844,-0.004081345714736728
962,2021-10-27,125.31999969482422,-0.012372919082481282
963,2021-10-28,125.9800033569336,0.005266546949541873
964,2021-10-29,120.77999877929688,-0.041276428314609426
965,2021-11-01,125.18000030517578,0.03642988549717652
966,2021-11-02,127.4000015258789,0.017734472082529207
967,2021-11-03,128.39999389648438,0.00784923358421108
968,2021-11-04,128.55000305175778,0.0011682956573528802
969,2021-11-05,131.5,0.02294824487133207
970,2021-11-08,130.63999938964844,-0.006539928595829414
971,2021-11-09,130.36000061035156,-0.0021432852158989046
972,2021-11-10,129.58000183105472,-0.005983421108045839
973,2021-11-11,129.83000183105472,0.00192931005145347
974,2021-11-12,131.49000549316406,0.012785978885446525
975,2021-11-15,132.32000732421878,0.006312280754280364
976,2021-11-16,134.24000549316406,0.014510263472407248
977,2021-11-17,134.44999694824222,0.0015642986180364193
978,2021-11-18,129.63999938964844,-0.03577536383615865
979,2021-11-19,130.14999389648438,0.003933928642679829
980,2021-11-22,128.80000305175778,-0.010372577088250345
981,2021-11-23,129.69999694824222,0.00698753008664732
982,2021-11-24,128.17999267578122,-0.011719385568432661
983,2021-11-26,126.61000061035156,-0.01224833948462456
984,2021-11-29,125.87000274658205,-0.005844703105617244
985,2021-11-30,119.58999633789062,-0.04989279631093002
986,2021-12-01,116.79000091552734,-0.023413291312863294
987,2021-12-02,119.6500015258789,0.024488403013372295
988,2021-12-03,118.8000030517578,-0.007104040645893872
989,2021-12-06,120.22000122070312,0.01195284623289683
990,2021-12-07,120.27999877929688,0.0004990646979250446
991,2021-12-08,120.81999969482422,0.0044895321001641175
992,2021-12-09,119.52999877929688,-0.01067704782971135
993,2021-12-10,119.73999786376952,0.0017568734762591909
994,2021-12-13,118.61000061035156,-0.00943709097693135
995,2021-12-14,116.9499969482422,-0.013995478067340028
996,2021-12-15,118.37000274658205,0.012141990896915367
997,2021-12-16,118.69000244140624,0.0027033850418105576
998,2021-12-17,115.88999938964844,-0.02359089219110999
999,2021-12-20,113.66999816894531,-0.019156106932393557
1000,2021-12-21,115.38999938964844,0.015131532052518493
1001,2021-12-22,115.38999938964844,0.0
1002,2021-12-23,116.33000183105469,0.008146307707586065
1003,2021-12-27,119.88999938964844,0.03060257459433302
1004,2021-12-28,121.44000244140624,0.012928543328457387
1005,2021-12-29,122.0999984741211,0.0054347498307512065
1006,2021-12-30,121.87999725341795,-0.0018018118218876555
1007,2021-12-31,122.4800033569336,0.004922925147988755
1008,2022-01-03,120.81999969482422,-0.013553262709111502
1009,2022-01-04,121.37999725341795,0.004634974010993442
1010,2022-01-05,123.05999755859376,0.013840833277235065
1011,2022-01-06,122.5500030517578,-0.004144275288101906
1012,2022-01-07,123.68000030517578,0.009220703592644819
1013,2022-01-10,122.0500030517578,-0.013179149817238223
1014,2022-01-11,122.5199966430664,0.0038508281815388123
1015,2022-01-12,121.3000030517578,-0.009957505915240694
1016,2022-01-13,121.66999816894531,0.0030502482100485118
1017,2022-01-14,121.18000030517578,-0.004027269426676083
1018,2022-01-18,120.37000274658205,-0.006684251168128985
1019,2022-01-19,121.41999816894531,0.008723065534640195
1020,2022-01-20,118.83000183105469,-0.021330887637527995
1021,2022-01-21,116.37999725341795,-0.02061772734060885
1022,2022-01-24,117.02999877929688,0.005585165330976416
1023,2022-01-25,116.02999877929688,-0.008544817657273218
1024,2022-01-26,115.96499633789062,-0.0005602209953470272
