Date,Adj Close
2018-01-02,82.77696990966797
2018-01-03,82.94822692871094
2018-01-04,81.82563018798828
2018-01-05,82.68184661865234
2018-01-08,82.95772552490234
2018-01-09,82.1871337890625
2018-01-10,81.50216674804688
2018-01-11,82.053955078125
2018-01-12,82.348876953125
2018-01-16,82.04444122314453
2018-01-17,82.615234375
2018-01-18,82.99579620361328
2018-01-19,84.29916381835938
2018-01-22,83.205078125
2018-01-23,83.33827209472656
2018-01-24,83.90909576416016
2018-01-25,85.07923889160156
2018-01-26,84.80335235595703
2018-01-29,83.4619369506836
2018-01-30,83.72929382324219
2018-01-31,83.47148895263672
2018-02-01,82.91769409179688
2018-02-02,81.92467498779297
2018-02-05,79.61396789550781
2018-02-06,80.00546264648438
2018-02-07,80.062744140625
2018-02-08,77.70429992675781
2018-02-09,78.44908142089844
2018-02-12,78.86919403076172
2018-02-13,85.66761016845703
2018-02-14,86.565185546875
2018-02-15,87.05211639404297
2018-02-16,87.68231201171875
2018-02-20,86.94708251953125
2018-02-21,86.08773803710938
2018-02-22,86.51742553710938
2018-02-23,86.88025665283203
2018-02-26,86.67974090576172
2018-02-27,85.45753479003906
2018-02-28,85.38116455078125
2018-03-01,84.98013305664062
2018-03-02,85.62940979003906
2018-03-05,86.31690979003906
2018-03-06,86.6701889038086
2018-03-07,86.06864929199219
2018-03-08,85.88722229003906
2018-03-09,86.76567840576172
2018-03-12,86.67974090576172
2018-03-13,86.4123764038086
2018-03-14,86.00179290771484
2018-03-15,86.20233154296875
2018-03-16,86.07819366455078
2018-03-19,85.89675903320312
2018-03-20,85.72489929199219
2018-03-21,85.54346466064453
2018-03-22,83.98711395263672
2018-03-23,82.85084533691406
2018-03-26,84.22582244873047
2018-03-27,84.10169982910156
2018-03-28,84.36904907226562
2018-03-29,85.77265167236328
2018-04-02,83.95845031738281
2018-04-03,85.51483154296875
2018-04-04,85.6580581665039
2018-04-05,86.31690979003906
2018-04-06,84.50272369384766
2018-04-09,85.83948516845703
2018-04-10,88.53211212158203
2018-04-11,88.0833511352539
2018-04-12,88.51301574707031
2018-04-13,88.56074523925781
2018-04-16,90.05030059814453
2018-04-17,91.78807830810547
2018-04-18,91.29158020019531
2018-04-19,90.51815795898438
2018-04-20,90.17443084716797
2018-04-23,90.08848571777344
2018-04-24,88.97134399414062
2018-04-25,88.94269561767578
2018-04-26,89.06684112548828
2018-04-27,89.23868560791016
2018-04-30,89.27688598632812
2018-05-01,89.31504821777344
2018-05-02,88.37934112548828
2018-05-03,87.00439453125
2018-05-04,88.09290313720703
2018-05-07,88.6084976196289
2018-05-08,87.91864013671875
2018-05-09,89.06839752197266
2018-05-10,89.86365509033203
2018-05-11,90.34273529052734
2018-05-14,89.46125030517578
2018-05-15,88.244384765625
2018-05-16,89.62410736083984
2018-05-17,89.38459014892578
2018-05-18,89.64327239990234
2018-05-21,90.07443237304688
2018-05-22,90.02652740478516
2018-05-23,90.15109252929688
2018-05-24,90.09361267089844
2018-05-25,90.14151000976562
2018-05-29,89.40374755859375
2018-05-30,90.02652740478516
2018-05-31,88.45519256591797
2018-06-01,88.88634490966797
2018-06-04,89.93070983886719
2018-06-05,89.98821258544922
2018-06-06,89.97863006591797
2018-06-07,89.336669921875
2018-06-08,89.7391128540039
2018-06-11,89.89240264892578
2018-06-12,90.2085952758789
2018-06-13,90.37146759033203
2018-06-14,90.88887786865234
2018-06-15,90.94634246826172
2018-06-18,90.86968994140625
2018-06-19,90.30440521240234
2018-06-20,90.67807006835938
2018-06-21,89.20254516601562
2018-06-22,88.7522201538086
2018-06-25,88.3210678100586
2018-06-26,88.8288803100586
2018-06-27,88.244384765625
2018-06-28,88.8288803100586
2018-06-29,89.47080993652344
2018-07-02,89.67202758789062
2018-07-03,90.05529022216797
2018-07-05,90.58226013183594
2018-07-06,90.14151000976562
2018-07-09,91.11881256103516
2018-07-10,92.08653259277344
2018-07-11,91.67453002929688
2018-07-12,91.73201751708984
2018-07-13,90.8984375
2018-07-16,89.38459014892578
2018-07-17,90.67807006835938
2018-07-18,90.6589126586914
2018-07-19,92.29733276367188
2018-07-20,91.77033996582031
2018-07-23,91.15711975097656
2018-07-24,90.78347778320312
2018-07-25,90.76431274414062
2018-07-26,92.04820251464844
2018-07-27,98.59227752685547
2018-07-30,98.20903778076172
2018-07-31,98.46857452392578
2018-08-01,98.46857452392578
2018-08-02,98.997314453125
2018-08-03,100.0739974975586
2018-08-06,100.17973327636719
2018-08-07,99.5452651977539
2018-08-08,98.97808837890625
2018-08-09,99.88174438476562
2018-08-10,98.4205093383789
2018-08-13,97.4784164428711
2018-08-14,98.0359878540039
2018-08-15,97.42072296142578
2018-08-16,97.73796844482422
2018-08-17,98.78581237792969
2018-08-20,98.88195037841797
2018-08-21,99.29532623291016
2018-08-22,99.18956756591797
2018-08-23,98.93002319335938
2018-08-24,99.78560638427734
2018-08-27,100.4969711303711
2018-08-28,99.87211608886719
2018-08-29,100.65079498291016
2018-08-30,100.65079498291016
2018-08-31,100.66041564941406
2018-09-04,102.26582336425781
2018-09-05,103.9961929321289
2018-09-06,104.7364273071289
2018-09-07,103.7270278930664
2018-09-10,104.36149597167969
2018-09-11,104.32302856445312
2018-09-12,105.15940856933594
2018-09-13,106.53410339355469
2018-09-14,107.63964080810547
2018-09-17,106.99554443359375
2018-09-18,107.2743148803711
2018-09-19,106.83210754394531
2018-09-20,106.21686553955078
2018-09-21,106.0534439086914
2018-09-24,106.11111450195312
2018-09-25,104.55378723144531
2018-09-26,104.39996337890625
2018-09-27,104.1500244140625
2018-09-28,103.5732192993164
2018-10-01,103.60205841064453
2018-10-02,103.96736145019531
2018-10-03,103.82317352294922
2018-10-04,102.94835662841797
2018-10-05,103.0252685546875
2018-10-08,103.50592041015625
2018-10-09,101.63133239746094
2018-10-10,98.4589614868164
2018-10-11,97.641845703125
2018-10-12,97.71874237060547
2018-10-15,98.19940948486328
2018-10-16,101.5159912109375
2018-10-17,100.95841217041016
2018-10-18,100.2374267578125
2018-10-19,100.28548431396484
2018-10-22,99.94903564453125
2018-10-23,99.67023468017578
2018-10-24,96.20947265625
2018-10-25,97.37266540527344
2018-10-26,96.4786376953125
2018-10-29,96.286376953125
2018-10-30,97.78150939941406
2018-10-31,98.35062408447266
2018-11-01,99.52742004394531
2018-11-02,100.12547302246094
2018-11-05,98.27344512939453
2018-11-06,100.41485595703125
2018-11-07,101.38911437988281
2018-11-08,101.40839385986328
2018-11-09,100.59815216064453
2018-11-12,98.16735076904297
2018-11-13,98.75575256347656
2018-11-14,98.46636199951172
2018-11-15,101.08042907714844
2018-11-16,102.51768493652344
2018-11-19,101.45663452148438
2018-11-20,100.61742401123047
2018-11-21,99.83609771728516
2018-11-23,100.22193145751953
2018-11-26,100.01937103271484
2018-11-27,98.67858123779297
2018-11-28,100.34733581542969
2018-11-29,100.1737060546875
2018-11-30,100.36663055419922
2018-12-03,100.76210021972656
2018-12-04,99.2959213256836
2018-12-06,98.03230285644531
2018-12-07,96.23812866210938
2018-12-10,95.60151672363281
2018-12-11,95.17708587646484
2018-12-12,96.3924789428711
2018-12-13,96.76866912841797
2018-12-14,96.78794860839844
2018-12-17,95.14813232421875
2018-12-18,94.4729232788086
2018-12-19,92.20610809326172
2018-12-20,91.64665222167969
2018-12-21,90.23833465576172
2018-12-24,86.52462005615234
2018-12-26,88.52133178710938
2018-12-27,89.10010528564453
2018-12-28,89.41841125488281
2018-12-31,90.73992156982422
2019-01-02,86.98762512207031
2019-01-03,85.93621063232422
2019-01-04,87.84612274169922
2019-01-07,88.6949691772461
2019-01-08,90.20938873291016
2019-01-09,90.17081451416016
2019-01-10,91.23186492919922
2019-01-11,91.37655639648438
2019-01-14,90.6338119506836
2019-01-15,91.45372772216797
2019-01-16,91.3572769165039
2019-01-17,92.53407287597656
2019-01-18,94.23178100585938
2019-01-22,93.02603149414062
2019-01-23,93.93273162841797
2019-01-24,93.69158935546875
2019-01-25,93.94239044189453
2019-01-28,94.4150619506836
2019-01-29,94.80223846435547
2019-01-30,94.82158660888672
2019-01-31,95.94442749023438
2019-02-01,96.36065673828125
2019-02-04,96.65104675292969
2019-02-05,97.83195495605469
2019-02-06,98.33529663085938
2019-02-07,98.68376159667969
2019-02-08,98.14170837402344
2019-02-11,98.44176483154297
2019-02-12,99.04190826416016
2019-02-13,99.50654602050781
2019-02-14,98.50952911376953
2019-02-15,98.67408752441406
2019-02-19,98.29657745361328
2019-02-20,98.98383331298828
2019-02-21,99.8162841796875
2019-02-22,98.78057861328125
2019-02-25,98.3062515258789
2019-02-26,98.06426239013672
2019-02-27,98.16105651855469
2019-02-28,98.47081756591797
2019-03-01,97.58028411865234
2019-03-04,98.35464477539062
2019-03-05,98.2191390991211
2019-03-06,97.2705307006836
2019-03-07,96.68006896972656
2019-03-08,97.25117492675781
2019-03-11,98.75151062011719
2019-03-12,98.98383331298828
2019-03-13,99.00318908691406
2019-03-14,99.59363555908203
2019-03-15,99.7485122680664
2019-03-18,100.38737487792969
2019-03-19,100.2809066772461
2019-03-20,100.61967468261719
2019-03-21,102.15873718261719
2019-03-22,100.5035400390625
2019-03-25,101.16175079345703
2019-03-26,102.06195831298828
2019-03-27,102.13938903808594
2019-03-28,102.78793334960938
2019-03-29,102.98151397705078
2019-04-01,104.25921630859375
2019-04-02,103.78491973876953
2019-04-03,104.02692413330078
2019-04-04,104.63672637939453
2019-04-05,105.25623321533203
2019-04-08,105.49820709228516
2019-04-09,104.69480895996094
2019-04-10,105.54661560058594
2019-04-11,106.14675903320312
2019-04-12,106.77593231201172
2019-04-15,106.369384765625
2019-04-16,106.1080322265625
2019-04-17,104.2495346069336
2019-04-18,104.74321746826172
2019-04-22,105.44013977050781
2019-04-23,106.53394317626953
2019-04-24,106.41777801513672
2019-04-25,105.94346618652344
2019-04-26,107.85037231445312
2019-04-29,107.75357055664062
2019-04-30,108.02547454833984
2019-05-01,109.55010223388672
2019-05-02,109.734619140625
2019-05-03,110.56005859375
2019-05-06,111.69623565673828
2019-05-07,110.67658233642578
2019-05-08,110.69600677490234
2019-05-09,109.734619140625
2019-05-10,110.31726837158203
2019-05-13,109.54039764404297
2019-05-14,109.71520233154297
2019-05-15,109.96768951416016
2019-05-16,110.81255340576172
2019-05-17,110.49207305908203
2019-05-20,109.77345275878906
2019-05-21,110.20075988769531
2019-05-22,109.88029479980469
2019-05-23,109.6957778930664
2019-05-24,109.6666488647461
2019-05-28,109.63750457763672
2019-05-29,109.44329833984375
2019-05-30,110.2298812866211
2019-05-31,109.99681091308594
2019-06-03,110.73484802246094
2019-06-04,112.37602233886719
2019-06-05,113.74527740478516
2019-06-06,116.75569152832031
2019-06-07,118.3968505859375
2019-06-10,119.6592788696289
2019-06-11,119.03778839111328
2019-06-12,118.10552215576172
2019-06-13,117.2315444946289
2019-06-14,116.6197280883789
2019-06-17,116.69741821289062
2019-06-18,116.03706359863281
2019-06-19,115.95938873291016
2019-06-20,116.34782409667969
2019-06-21,115.93024444580078
2019-06-24,115.34759521484375
2019-06-25,117.56170654296875
2019-06-26,115.79429626464844
2019-06-27,118.03754425048828
2019-06-28,120.74691772460938
2019-07-01,120.67894744873047
2019-07-02,119.97003936767578
2019-07-03,122.28126525878906
2019-07-05,121.00914001464844
2019-07-08,120.40702819824219
2019-07-09,120.4847183227539
2019-07-10,120.00888061523438
2019-07-11,120.43617248535156
2019-07-12,119.84380340576172
2019-07-15,119.36795806884766
2019-07-16,119.60102844238281
2019-07-17,119.96033477783203
2019-07-18,120.76634979248047
2019-07-19,119.83409118652344
2019-07-22,119.60102844238281
2019-07-23,120.91201782226562
2019-07-24,119.72725677490234
2019-07-25,119.36795806884766
2019-07-26,120.89258575439453
2019-07-29,121.32960510253906
2019-07-30,120.57966613769531
2019-07-31,117.86246490478516
2019-08-01,114.49274444580078
2019-08-02,114.94075012207031
2019-08-05,114.02527618408203
2019-08-06,116.59638214111328
2019-08-07,118.48577880859375
2019-08-08,119.66419982910156
2019-08-09,117.9208984375
2019-08-12,116.88856506347656
2019-08-13,118.0572509765625
2019-08-14,115.98282623291016
2019-08-15,115.24266052246094
2019-08-16,117.11256408691406
2019-08-19,117.08334350585938
2019-08-20,115.77831268310547
2019-08-21,116.216552734375
2019-08-22,117.3949966430664
2019-08-23,117.12229919433594
2019-08-26,117.833251953125
2019-08-27,118.3299560546875
2019-08-28,118.6805419921875
2019-08-29,118.5149917602539
2019-08-30,119.03116607666016
2019-09-03,116.52821350097656
2019-09-04,118.75847625732422
2019-09-05,118.03777313232422
2019-09-06,117.72611236572266
2019-09-09,115.99256896972656
2019-09-10,116.00230407714844
2019-09-11,115.53482055664062
2019-09-12,114.96996307373047
2019-09-13,115.31083679199219
2019-09-16,113.44093322753906
2019-09-17,113.95709991455078
2019-09-18,115.21343994140625
2019-09-19,114.77517700195312
2019-09-20,114.96996307373047
2019-09-23,115.01866912841797
2019-09-24,115.41796875
2019-09-25,116.01203918457031
2019-09-26,115.81726837158203
2019-09-27,115.57378387451172
2019-09-30,115.3595199584961
2019-10-01,114.59986877441406
2019-10-02,112.34040069580078
2019-10-03,111.98979949951172
2019-10-04,114.26876831054688
2019-10-07,113.51883697509766
2019-10-08,111.78528594970703
2019-10-09,113.44093322753906
2019-10-10,113.27536010742188
2019-10-11,113.29484558105469
2019-10-14,112.8273696899414
2019-10-15,112.17484283447266
2019-10-16,112.457275390625
2019-10-17,113.50910186767578
2019-10-18,114.7070083618164
2019-10-21,114.8238754272461
2019-10-22,113.61624145507812
2019-10-23,114.30770111083984
2019-10-24,114.27849578857422
2019-10-25,114.80440521240234
2019-10-28,115.11602783203125
2019-10-29,115.77056121826172
2019-10-30,116.49345397949219
2019-10-31,115.41887664794922
2019-11-01,108.22901916503906
2019-11-04,106.15801239013672
2019-11-05,106.14824676513672
2019-11-06,106.95906066894531
2019-11-07,106.87114715576172
2019-11-08,106.48040008544922
2019-11-11,106.0700912475586
2019-11-12,105.71842193603516
2019-11-13,107.0860595703125
2019-11-14,107.91641235351562
2019-11-15,107.4181900024414
2019-11-18,107.78942108154297
2019-11-19,107.94571685791016
2019-11-20,108.1410903930664
2019-11-21,108.72722625732422
2019-11-22,107.57450103759766
2019-11-25,108.38530731201172
2019-11-26,109.95809173583984
2019-11-27,110.22186279296875
2019-11-29,109.52827453613281
2019-12-02,109.42080688476562
2019-12-03,110.1046371459961
2019-12-04,109.19612884521484
2019-12-05,109.36219024658203
2019-12-06,109.48920440673828
2019-12-09,110.02647399902344
2019-12-10,109.35243225097656
2019-12-11,109.96785736083984
2019-12-12,111.54065704345703
2019-12-13,111.33551025390625
2019-12-16,111.67741394042969
2019-12-17,110.7298355102539
2019-12-18,110.46607971191406
2019-12-19,110.64192199707031
2019-12-20,112.30262756347656
2019-12-23,112.7031478881836
2019-12-24,112.07794189453125
2019-12-26,112.16585540771484
2019-12-27,112.3612289428711
2019-12-30,113.08413696289062
2019-12-31,112.94735717773438
2020-01-02,111.05220794677734
2020-01-03,111.40387725830078
2020-01-06,111.41365051269531
2020-01-07,110.30001831054688
2020-01-08,110.60285186767578
2020-01-09,112.00955963134766
2020-01-10,113.1134262084961
2020-01-13,113.51395416259766
2020-01-14,113.44556427001953
2020-01-15,114.01216125488281
2020-01-16,115.48724365234375
2020-01-17,114.60807037353516
2020-01-21,112.9571304321289
2020-01-22,112.99620056152344
2020-01-23,114.65691375732422
2020-01-24,114.41270446777344
2020-01-27,113.79724884033203
2020-01-28,113.64046478271484
2020-01-29,113.61106872558594
2020-01-30,114.19902038574219
2020-01-31,113.18970489501953
2020-02-03,114.88494110107422
2020-02-04,114.60077667236328
2020-02-05,115.5022964477539
2020-02-06,115.16913604736328
2020-02-07,114.35579681396484
2020-02-10,113.47389221191406
2020-02-11,113.71886444091797
2020-02-12,112.40576934814453
2020-02-13,113.86583709716797
2020-02-14,114.32640075683594
2020-02-18,112.9447250366211
2020-02-19,112.69974517822266
2020-02-20,112.62135314941406
2020-02-21,109.7306137084961
2020-02-24,107.01626586914062
2020-02-25,104.7918701171875
2020-02-26,102.5772476196289
2020-02-27,100.34304809570312
2020-02-28,99.03976440429688
2020-03-02,101.49935150146484
2020-03-03,100.6958236694336
2020-03-04,105.28181457519531
2020-03-05,101.89131927490234
2020-03-06,105.14463806152344
2020-03-09,99.41212463378906
2020-03-10,101.90110778808594
2020-03-11,97.0897445678711
2020-03-12,92.50375366210938
2020-03-13,94.45377349853516
2020-03-16,86.11471557617188
2020-03-17,94.51258087158203
2020-03-18,94.8065414428711
2020-03-19,96.89375305175781
2020-03-20,90.6517105102539
2020-03-23,82.24406433105469
2020-03-24,86.29109954833984
2020-03-25,88.36852264404297
2020-03-26,94.2676010131836
2020-03-27,92.11178588867188
2020-03-30,98.46162414550781
2020-03-31,97.5405044555664
2020-04-01,94.27738189697266
2020-04-02,94.21859741210938
2020-04-03,92.29796600341797
2020-04-06,98.73600006103516
2020-04-07,99.0887680053711
2020-04-08,102.01870727539062
2020-04-09,105.11522674560547
2020-04-13,100.29405212402344
2020-04-14,101.93050384521484
2020-04-15,98.902587890625
2020-04-16,99.80410766601562
2020-04-17,100.87220764160156
2020-04-20,104.7918701171875
2020-04-21,103.98832702636719
2020-04-22,104.16471862792969
2020-04-23,102.91040802001953
2020-04-24,102.02849578857422
2020-04-27,110.31856536865234
2020-04-28,109.29618072509766
2020-04-29,108.21481323242188
2020-04-30,105.2656478881836
2020-05-01,104.34158325195312
2020-05-04,105.00022888183594
2020-05-05,103.77140808105469
2020-05-06,103.0832748413086
2020-05-07,103.68292236328125
2020-05-08,105.7080307006836
2020-05-11,104.50870513916016
2020-05-12,102.18868255615234
2020-05-13,100.68461608886719
2020-05-14,100.72393035888672
2020-05-15,99.78019714355469
2020-05-18,102.38529968261719
2020-05-19,101.97241973876953
2020-05-20,102.64090728759766
2020-05-21,103.30937194824219
2020-05-22,103.31920623779297
2020-05-26,107.69380187988281
2020-05-27,110.64297485351562
2020-05-28,109.70906829833984
2020-05-29,109.50263214111328
2020-06-01,109.53211975097656
2020-06-02,110.17111206054688
2020-06-03,111.360595703125
2020-06-04,110.23992156982422
2020-06-05,111.47856903076172
2020-06-08,111.655517578125
2020-06-09,110.56432342529297
2020-06-10,109.7483901977539
2020-06-11,102.48361206054688
2020-06-12,103.57479858398438
2020-06-15,103.62395477294922
2020-06-16,105.5704116821289
2020-06-17,105.09854125976562
2020-06-18,105.17717742919922
2020-06-19,105.77684783935547
2020-06-22,105.7276840209961
2020-06-23,105.61955261230469
2020-06-24,104.14496612548828
2020-06-25,105.77684783935547
2020-06-26,105.89480590820312
2020-06-29,107.39888763427734
2020-06-30,110.08262634277344
2020-07-01,110.57416534423828
2020-07-02,113.02196502685547
2020-07-06,113.30705261230469
2020-07-07,113.19892120361328
2020-07-08,111.01653289794922
2020-07-09,111.83246612548828
2020-07-10,113.00230407714844
2020-07-13,111.50806427001953
2020-07-14,114.3392562866211
2020-07-15,115.9023208618164
2020-07-16,115.25350189208984
2020-07-17,117.37690734863281
2020-07-20,117.2687759399414
2020-07-21,116.17757415771484
2020-07-22,116.49215698242188
2020-07-23,116.43317413330078
2020-07-24,116.83621978759766
2020-07-27,117.81929016113281
2020-07-28,116.39942169189453
2020-07-29,117.14878845214844
2020-07-30,116.26138305664062
2020-07-31,113.58927917480469
2020-08-03,117.00089263916016
2020-08-04,116.9614486694336
2020-08-05,116.70509338378906
2020-08-06,116.0148696899414
2020-08-07,117.5826416015625
2020-08-10,115.36408996582031
2020-08-11,115.10773468017578
2020-08-12,116.43885803222656
2020-08-13,116.86284637451172
2020-08-14,116.83325958251953
2020-08-17,116.59661865234375
2020-08-18,116.23179626464844
2020-08-19,116.0444564819336
2020-08-20,115.90641784667969
2020-08-21,116.15292358398438
2020-08-24,117.44459533691406
2020-08-25,116.4782943725586
2020-08-26,116.94172668457031
2020-08-27,118.37146759033203
2020-08-28,116.4782943725586
2020-08-31,116.73466491699219
2020-09-01,117.82915496826172
2020-09-02,120.55055236816406
2020-09-03,117.50375366210938
2020-09-04,117.06005096435547
2020-09-08,114.43724060058594
2020-09-09,116.24165344238281
2020-09-10,115.55145263671875
2020-09-11,116.70509338378906
2020-09-14,117.4150161743164
2020-09-15,116.67550659179688
2020-09-16,116.12333679199219
2020-09-17,114.33863830566406
2020-09-18,113.43150329589844
2020-09-21,111.86373138427734
2020-09-22,112.73143005371094
2020-09-23,110.5720443725586
2020-09-24,110.69037628173828
2020-09-25,110.5326156616211
2020-09-28,110.78897094726562
2020-09-29,111.04534149169922
2020-09-30,111.61723327636719
2020-10-01,112.11024475097656
2020-10-02,111.2721176147461
2020-10-05,112.94835662841797
2020-10-06,112.95821380615234
2020-10-07,113.37234497070312
2020-10-08,114.89080047607422
2020-10-09,115.1767578125
2020-10-12,116.38955688476562
2020-10-13,115.91627502441406
2020-10-14,114.81192779541016
2020-10-15,114.71331787109375
2020-10-16,114.72318267822266
2020-10-19,113.53997039794922
2020-10-20,115.32465362548828
2020-10-21,116.09375762939453
2020-10-22,116.65577697753906
2020-10-23,116.69522857666016
2020-10-26,115.81766510009766
2020-10-27,114.383544921875
2020-10-28,111.10979461669922
2020-10-29,111.7032241821289
2020-10-30,112.84062194824219
2020-11-02,116.89573669433594
2020-11-03,118.250732421875
2020-11-04,117.74632263183594
2020-11-05,121.56404113769531
2020-11-06,122.2464828491211
2020-11-09,121.8211898803711
2020-11-10,126.21257781982422
2020-11-11,123.898193359375
2020-11-12,122.90914916992188
2020-11-13,123.70038604736328
2020-11-16,125.47078704833984
2020-11-17,125.9653091430664
2020-11-18,124.98616027832031
2020-11-19,125.83673858642578
2020-11-20,126.41038513183594
2020-11-23,125.47078704833984
2020-11-24,126.4796142578125
2020-11-25,124.90702819824219
2020-11-27,125.84662628173828
2020-11-30,124.93669128417969
2020-12-01,126.42028045654297
2020-12-02,124.87736511230469
2020-12-03,124.49163055419922
2020-12-04,126.28180694580078
2020-12-07,127.2214126586914
2020-12-08,127.77525329589844
2020-12-09,128.11155700683594
2020-12-10,129.041259765625
2020-12-11,129.02146911621094
2020-12-14,127.00382232666016
2020-12-15,128.8335418701172
2020-12-16,129.6643524169922
2020-12-17,131.68202209472656
2020-12-18,132.6315155029297
2020-12-21,133.41287231445312
2020-12-22,133.02711486816406
2020-12-23,133.05679321289062
2020-12-24,134.21397399902344
2020-12-28,134.19419860839844
2020-12-29,133.8282470703125
2020-12-30,134.89642333984375
2020-12-31,135.3909454345703
2021-01-04,132.5325927734375
2021-01-05,132.23587036132812
2021-01-06,136.21185302734375
2021-01-07,138.170166015625
2021-01-08,137.54708862304688
2021-01-11,137.2701416015625
2021-01-12,136.63714599609375
2021-01-13,137.06243896484375
2021-01-14,137.92291259765625
2021-01-15,137.3096923828125
2021-01-19,135.7568817138672
2021-01-20,139.08009338378906
2021-01-21,136.59759521484375
2021-01-22,136.67672729492188
2021-01-25,138.0416259765625
2021-01-26,137.68463134765625
2021-01-27,132.1316375732422
2021-01-28,134.11483764648438
2021-01-29,131.85398864746094
2021-02-01,132.96456909179688
2021-02-02,135.7906494140625
2021-02-03,135.41384887695312
2021-02-04,136.84176635742188
2021-02-05,139.47943115234375
2021-02-08,140.78834533691406
2021-02-09,140.9767608642578
2021-02-10,142.0476837158203
2021-02-11,141.77005004882812
2021-02-12,143.41612243652344
2021-02-16,142.394775390625
2021-02-17,142.00804138183594
2021-02-18,139.80665588378906
2021-02-19,131.13011169433594
2021-02-22,128.01646423339844
2021-02-23,127.20333862304688
2021-02-24,127.67930603027344
2021-02-25,129.20639038085938
2021-02-26,128.97833251953125
2021-03-01,129.50387573242188
2021-03-02,129.2559814453125
2021-03-03,129.95008850097656
2021-03-04,129.30552673339844
2021-03-05,132.96456909179688
2021-03-08,136.55419921875
2021-03-09,136.53436279296875
2021-03-10,138.21017456054688
2021-03-11,138.21017456054688
2021-03-12,139.58851623535156
2021-03-15,140.9370880126953
2021-03-16,139.32077026367188
2021-03-17,140.09422302246094
2021-03-18,140.32229614257812
2021-03-19,138.1407470703125
2021-03-22,140.401611328125
2021-03-23,139.58851623535156
2021-03-24,140.64952087402344
2021-03-25,141.27426147460938
2021-03-26,143.60452270507812
2021-03-29,143.55494689941406
2021-03-30,141.87911987304688
2021-03-31,140.48095703125
2021-04-01,142.6624755859375
2021-04-05,143.47560119628906
2021-04-06,144.744873046875
2021-04-07,142.38482666015625
2021-04-08,142.4740753173828
2021-04-09,143.98130798339844
2021-04-12,144.9828643798828
2021-04-13,145.10183715820312
2021-04-14,144.58619689941406
2021-04-15,145.96453857421875
2021-04-16,146.837158203125
2021-04-19,148.45347595214844
2021-04-20,149.15753173828125
2021-04-21,150.6647491455078
2021-04-22,148.81045532226562
2021-04-23,150.17886352539062
2021-04-26,149.6533203125
2021-04-27,150.74684143066406
2021-04-28,150.22988891601562
2021-04-29,150.0310821533203
2021-04-30,149.92172241210938
2021-05-03,151.56202697753906
2021-05-04,154.10693359375
2021-05-05,153.27186584472656
2021-05-06,155.5980987548828
2021-05-07,156.63197326660156
2021-05-10,154.56422424316406
2021-05-11,153.08299255371094
2021-05-12,150.71701049804688
2021-05-13,153.7092742919922
2021-05-14,152.63565063476562
2021-05-17,152.2081756591797
2021-05-18,150.0310821533203
2021-05-19,148.65919494628906
2021-05-20,148.8580322265625
2021-05-21,148.74868774414062
2021-05-24,148.38084411621094
2021-05-25,146.85986328125
2021-05-26,146.9890899658203
2021-05-27,145.905517578125
2021-05-28,146.4423370361328
2021-06-01,146.01487731933594
2021-06-02,144.80206298828125
2021-06-03,144.5435791015625
2021-06-04,144.70263671875
2021-06-07,141.68055725097656
2021-06-08,141.93902587890625
2021-06-09,141.33261108398438
2021-06-10,144.13601684570312
2021-06-11,144.9710693359375
2021-06-14,142.6448516845703
2021-06-15,143.47988891601562
2021-06-16,141.77996826171875
2021-06-17,140.67649841308594
2021-06-18,139.27481079101562
2021-06-21,140.74609375
2021-06-22,140.79580688476562
2021-06-23,139.3444061279297
2021-06-24,139.35433959960938
2021-06-25,140.08998107910156
2021-06-28,139.8812255859375
2021-06-29,139.4537353515625
2021-06-30,140.0104522705078
2021-07-01,140.28878784179688
2021-07-02,139.58299255371094
2021-07-06,139.22511291503906
2021-07-07,140.1894073486328
2021-07-08,138.44970703125
2021-07-09,140.3484344482422
2021-07-12,139.59292602539062
2021-07-13,137.68423461914062
2021-07-14,137.6245880126953
2021-07-15,137.74388122558594
2021-07-16,138.22103881835938
2021-07-19,136.32229614257812
2021-07-20,136.21295166015625
2021-07-21,135.2585906982422
2021-07-22,133.8767852783203
2021-07-23,135.4375457763672
2021-07-26,135.9147186279297
2021-07-27,135.9544677734375
2021-07-28,136.8392333984375
2021-07-29,138.23098754882812
2021-07-30,128.16065979003906
2021-08-02,129.1448211669922
2021-08-03,128.2475128173828
2021-08-04,126.39302825927734
2021-08-05,127.12086486816406
2021-08-06,128.048095703125
2021-08-09,129.6931915283203
2021-08-10,128.81581115722656
2021-08-11,131.23858642578125
2021-08-12,132.2854461669922
2021-08-13,132.65435791015625
2021-08-16,132.48486328125
2021-08-17,132.61447143554688
2021-08-18,131.65733337402344
2021-08-19,132.01626586914062
2021-08-20,133.1229705810547
2021-08-23,132.56463623046875
2021-08-24,132.56463623046875
2021-08-25,133.7311553955078
2021-08-26,132.26551818847656
2021-08-27,134.1299591064453
2021-08-30,134.827880859375
2021-08-31,134.39915466308594
2021-09-01,134.6085205078125
2021-09-02,134.73814392089844
2021-09-03,134.74810791015625
2021-09-07,130.69021606445312
2021-09-08,130.49081420898438
2021-09-09,128.2475128173828
2021-09-10,125.4657974243164
2021-09-13,124.3890151977539
2021-09-14,124.20954895019531
2021-09-15,124.25939178466797
2021-09-16,121.93633270263672
2021-09-17,120.86951446533203
2021-09-20,121.49763488769531
2021-09-21,119.70298767089844
2021-09-22,119.92233276367188
2021-09-23,120.65016174316406
2021-09-24,120.0020980834961
2021-09-27,119.97218322753906
2021-09-28,119.6730728149414
2021-09-29,120.02203369140625
2021-09-30,118.9950942993164
2021-10-01,121.21846771240234
2021-10-04,121.92636108398438
2021-10-05,121.29823303222656
2021-10-06,122.73394775390625
2021-10-07,123.8905029296875
2021-10-08,124.13975524902344
2021-10-11,124.19957733154297
2021-10-12,124.11981201171875
2021-10-13,127.01119232177734
2021-10-14,127.62934112548828
2021-10-15,127.8387222290039
2021-10-18,127.43991088867188
2021-10-19,127.17071533203125
2021-10-20,127.7789077758789
2021-10-21,128.6862030029297
2021-10-22,127.39006042480469
2021-10-25,127.41000366210938
2021-10-26,126.88999938964844
2021-10-27,125.31999969482422
2021-10-28,125.9800033569336
2021-10-29,120.77999877929688
2021-11-01,125.18000030517578
2021-11-02,127.4000015258789
2021-11-03,128.39999389648438
2021-11-04,128.5500030517578
2021-11-05,131.5
2021-11-08,130.63999938964844
2021-11-09,130.36000061035156
2021-11-10,129.5800018310547
2021-11-11,129.8300018310547
2021-11-12,131.49000549316406
2021-11-15,132.32000732421875
2021-11-16,134.24000549316406
2021-11-17,134.4499969482422
2021-11-18,129.63999938964844
2021-11-19,130.14999389648438
2021-11-22,128.8000030517578
2021-11-23,129.6999969482422
2021-11-24,128.17999267578125
2021-11-26,126.61000061035156
2021-11-29,125.87000274658203
2021-11-30,119.58999633789062
2021-12-01,116.79000091552734
2021-12-02,119.6500015258789
2021-12-03,118.80000305175781
2021-12-06,120.22000122070312
2021-12-07,120.27999877929688
2021-12-08,120.81999969482422
2021-12-09,119.52999877929688
2021-12-10,119.73999786376953
2021-12-13,118.61000061035156
2021-12-14,116.94999694824219
2021-12-15,118.37000274658203
2021-12-16,118.69000244140625
2021-12-17,115.88999938964844
2021-12-20,113.66999816894531
2021-12-21,115.38999938964844
2021-12-22,115.38999938964844
2021-12-23,116.33000183105469
2021-12-27,119.88999938964844
2021-12-28,121.44000244140625
2021-12-29,122.0999984741211
2021-12-30,121.87999725341797
2021-12-31,122.4800033569336
2022-01-03,120.81999969482422
2022-01-04,121.37999725341797
2022-01-05,123.05999755859375
2022-01-06,122.55000305175781
2022-01-07,123.68000030517578
2022-01-10,122.05000305175781
2022-01-11,122.5199966430664
2022-01-12,121.30000305175781
2022-01-13,121.66999816894531
2022-01-14,121.18000030517578
2022-01-18,120.37000274658203
2022-01-19,121.41999816894531
2022-01-20,118.83000183105469
2022-01-21,116.37999725341797
2022-01-24,117.02999877929688
2022-01-25,116.02999877929688
2022-01-26,115.96499633789062
